# Version 1.00
#
freq[Hz] db:Trc1_S11 ang:Trc1_S11 db:Trc2_S11 ang:Trc2_S11 db:Trc3_S11 ang:Trc3_S11 db:Trc4_S11 ang:Trc4_S11 
1.950000000000000E+009 -3.055058087351096E+000 -6.140375632713229E+001 -3.055058087351096E+000 -6.140375632713229E+001 -3.055058087351096E+000 -6.140375632713229E+001 -3.055058087351096E+000 -6.140375632713229E+001 
1.955000000000000E+009 -3.113225209451077E+000 -6.268780751467512E+001 -3.113225209451077E+000 -6.268780751467512E+001 -3.113225209451077E+000 -6.268780751467512E+001 -3.113225209451077E+000 -6.268780751467512E+001 
1.960000000000000E+009 -3.179818466283140E+000 -6.391541078518583E+001 -3.179818466283140E+000 -6.391541078518583E+001 -3.179818466283140E+000 -6.391541078518583E+001 -3.179818466283140E+000 -6.391541078518583E+001 
1.965000000000000E+009 -3.245978597074445E+000 -6.508336402886458E+001 -3.245978597074445E+000 -6.508336402886458E+001 -3.245978597074445E+000 -6.508336402886458E+001 -3.245978597074445E+000 -6.508336402886458E+001 
1.970000000000000E+009 -3.306720593780127E+000 -6.618994060167006E+001 -3.306720593780127E+000 -6.618994060167006E+001 -3.306720593780127E+000 -6.618994060167006E+001 -3.306720593780127E+000 -6.618994060167006E+001 
1.975000000000000E+009 -3.367323790252488E+000 -6.735919669667042E+001 -3.367323790252488E+000 -6.735919669667042E+001 -3.367323790252488E+000 -6.735919669667042E+001 -3.367323790252488E+000 -6.735919669667042E+001 
1.980000000000000E+009 -3.428195343700795E+000 -6.846852585340278E+001 -3.428195343700795E+000 -6.846852585340278E+001 -3.428195343700795E+000 -6.846852585340278E+001 -3.428195343700795E+000 -6.846852585340278E+001 
1.985000000000000E+009 -3.495518597688704E+000 -6.953638798966851E+001 -3.495518597688704E+000 -6.953638798966851E+001 -3.495518597688704E+000 -6.953638798966851E+001 -3.495518597688704E+000 -6.953638798966851E+001 
1.990000000000000E+009 -3.562246447848917E+000 -7.054097992463589E+001 -3.562246447848917E+000 -7.054097992463589E+001 -3.562246447848917E+000 -7.054097992463589E+001 -3.562246447848917E+000 -7.054097992463589E+001 
1.995000000000000E+009 -3.624716679339680E+000 -7.148972220946212E+001 -3.624716679339680E+000 -7.148972220946212E+001 -3.624716679339680E+000 -7.148972220946212E+001 -3.624716679339680E+000 -7.148972220946212E+001 
2.000000000000000E+009 -3.685761389863567E+000 -7.239361084194124E+001 -3.685761389863567E+000 -7.239361084194124E+001 -3.685761389863567E+000 -7.239361084194124E+001 -3.685761389863567E+000 -7.239361084194124E+001 
2.005000000000000E+009 -3.736440613006942E+000 -7.328312765638137E+001 -3.736440613006942E+000 -7.328312765638137E+001 -3.736440613006942E+000 -7.328312765638137E+001 -3.736440613006942E+000 -7.328312765638137E+001 
2.010000000000000E+009 -3.777504404774354E+000 -7.414682794289823E+001 -3.777504404774354E+000 -7.414682794289823E+001 -3.777504404774354E+000 -7.414682794289823E+001 -3.777504404774354E+000 -7.414682794289823E+001 
2.015000000000000E+009 -3.819970338117417E+000 -7.500242831409449E+001 -3.819970338117417E+000 -7.500242831409449E+001 -3.819970338117417E+000 -7.500242831409449E+001 -3.819970338117417E+000 -7.500242831409449E+001 
2.020000000000000E+009 -3.857329327782181E+000 -7.584154673128941E+001 -3.857329327782181E+000 -7.584154673128941E+001 -3.857329327782181E+000 -7.584154673128941E+001 -3.857329327782181E+000 -7.584154673128941E+001 
2.025000000000000E+009 -3.887220335923587E+000 -7.666333051089052E+001 -3.887220335923587E+000 -7.666333051089052E+001 -3.887220335923587E+000 -7.666333051089052E+001 -3.887220335923587E+000 -7.666333051089052E+001 
2.030000000000000E+009 -3.913894686703111E+000 -7.745998034898615E+001 -3.913894686703111E+000 -7.745998034898615E+001 -3.913894686703111E+000 -7.745998034898615E+001 -3.913894686703111E+000 -7.745998034898615E+001 
2.035000000000000E+009 -3.934279454690373E+000 -7.821074863736371E+001 -3.934279454690373E+000 -7.821074863736371E+001 -3.934279454690373E+000 -7.821074863736371E+001 -3.934279454690373E+000 -7.821074863736371E+001 
2.040000000000000E+009 -3.942279295424874E+000 -7.896981840401264E+001 -3.942279295424874E+000 -7.896981840401264E+001 -3.942279295424874E+000 -7.896981840401264E+001 -3.942279295424874E+000 -7.896981840401264E+001 
2.045000000000000E+009 -3.939483982811043E+000 -7.973418766650534E+001 -3.939483982811043E+000 -7.973418766650534E+001 -3.939483982811043E+000 -7.973418766650534E+001 -3.939483982811043E+000 -7.973418766650534E+001 
2.050000000000000E+009 -3.929886546038496E+000 -8.054786684239393E+001 -3.929886546038496E+000 -8.054786684239393E+001 -3.929886546038496E+000 -8.054786684239393E+001 -3.929886546038496E+000 -8.054786684239393E+001 
2.055000000000000E+009 -3.916657111963343E+000 -8.137600092792289E+001 -3.916657111963343E+000 -8.137600092792289E+001 -3.916657111963343E+000 -8.137600092792289E+001 -3.916657111963343E+000 -8.137600092792289E+001 
2.060000000000000E+009 -3.897338504479941E+000 -8.223500008572063E+001 -3.897338504479941E+000 -8.223500008572063E+001 -3.897338504479941E+000 -8.223500008572063E+001 -3.897338504479941E+000 -8.223500008572063E+001 
2.065000000000000E+009 -3.872576278316191E+000 -8.311070450953434E+001 -3.872576278316191E+000 -8.311070450953434E+001 -3.872576278316191E+000 -8.311070450953434E+001 -3.872576278316191E+000 -8.311070450953434E+001 
2.070000000000000E+009 -3.837145157625291E+000 -8.407743525081355E+001 -3.837145157625291E+000 -8.407743525081355E+001 -3.837145157625291E+000 -8.407743525081355E+001 -3.837145157625291E+000 -8.407743525081355E+001 
2.075000000000000E+009 -3.805398857587936E+000 -8.508747510269055E+001 -3.805398857587936E+000 -8.508747510269055E+001 -3.805398857587936E+000 -8.508747510269055E+001 -3.805398857587936E+000 -8.508747510269055E+001 
2.080000000000000E+009 -3.767946162407244E+000 -8.614913993667875E+001 -3.767946162407244E+000 -8.614913993667875E+001 -3.767946162407244E+000 -8.614913993667875E+001 -3.767946162407244E+000 -8.614913993667875E+001 
2.085000000000000E+009 -3.736900280503450E+000 -8.726240885560252E+001 -3.736900280503450E+000 -8.726240885560252E+001 -3.736900280503450E+000 -8.726240885560252E+001 -3.736900280503450E+000 -8.726240885560252E+001 
2.090000000000000E+009 -3.710429903799489E+000 -8.841729486011370E+001 -3.710429903799489E+000 -8.841729486011370E+001 -3.710429903799489E+000 -8.841729486011370E+001 -3.710429903799489E+000 -8.841729486011370E+001 
2.095000000000000E+009 -3.688113277941302E+000 -8.957185088197463E+001 -3.688113277941302E+000 -8.957185088197463E+001 -3.688113277941302E+000 -8.957185088197463E+001 -3.688113277941302E+000 -8.957185088197463E+001 
2.100000000000000E+009 -3.665540627172030E+000 -9.075615544827934E+001 -3.665540627172030E+000 -9.075615544827934E+001 -3.665540627172030E+000 -9.075615544827934E+001 -3.665540627172030E+000 -9.075615544827934E+001 
2.105000000000000E+009 -3.646104898332113E+000 -9.194819580256507E+001 -3.646104898332113E+000 -9.194819580256507E+001 -3.646104898332113E+000 -9.194819580256507E+001 -3.646104898332113E+000 -9.194819580256507E+001 
2.110000000000000E+009 -3.628249149153187E+000 -9.315673191368911E+001 -3.628249149153187E+000 -9.315673191368911E+001 -3.628249149153187E+000 -9.315673191368911E+001 -3.628249149153187E+000 -9.315673191368911E+001 
2.115000000000000E+009 -3.609286660783005E+000 -9.439302041518344E+001 -3.609286660783005E+000 -9.439302041518344E+001 -3.609286660783005E+000 -9.439302041518344E+001 -3.609286660783005E+000 -9.439302041518344E+001 
2.120000000000000E+009 -3.589343582847133E+000 -9.558792735810228E+001 -3.589343582847133E+000 -9.558792735810228E+001 -3.589343582847133E+000 -9.558792735810228E+001 -3.589343582847133E+000 -9.558792735810228E+001 
2.125000000000000E+009 -3.569390305808840E+000 -9.685932792430207E+001 -3.569390305808840E+000 -9.685932792430207E+001 -3.569390305808840E+000 -9.685932792430207E+001 -3.569390305808840E+000 -9.685932792430207E+001 
2.130000000000000E+009 -3.544124734542486E+000 -9.815764161181645E+001 -3.544124734542486E+000 -9.815764161181645E+001 -3.544124734542486E+000 -9.815764161181645E+001 -3.544124734542486E+000 -9.815764161181645E+001 
2.135000000000000E+009 -3.519039086449613E+000 -9.952351267510694E+001 -3.519039086449613E+000 -9.952351267510694E+001 -3.519039086449613E+000 -9.952351267510694E+001 -3.519039086449613E+000 -9.952351267510694E+001 
2.140000000000000E+009 -3.512196564434086E+000 -1.009713464781007E+002 -3.512196564434086E+000 -1.009713464781007E+002 -3.512196564434086E+000 -1.009713464781007E+002 -3.512196564434086E+000 -1.009713464781007E+002 
2.145000000000000E+009 -3.514388258080303E+000 -1.023719777639692E+002 -3.514388258080303E+000 -1.023719777639692E+002 -3.514388258080303E+000 -1.023719777639692E+002 -3.514388258080303E+000 -1.023719777639692E+002 
2.150000000000000E+009 -3.515432849563654E+000 -1.037848581678875E+002 -3.515432849563654E+000 -1.037848581678875E+002 -3.515432849563654E+000 -1.037848581678875E+002 -3.515432849563654E+000 -1.037848581678875E+002 
2.155000000000000E+009 -3.523260857137083E+000 -1.052006230488106E+002 -3.523260857137083E+000 -1.052006230488106E+002 -3.523260857137083E+000 -1.052006230488106E+002 -3.523260857137083E+000 -1.052006230488106E+002 
2.160000000000000E+009 -3.544818698341163E+000 -1.066272401071187E+002 -3.544818698341163E+000 -1.066272401071187E+002 -3.544818698341163E+000 -1.066272401071187E+002 -3.544818698341163E+000 -1.066272401071187E+002 
2.165000000000000E+009 -3.572333519319753E+000 -1.080188202436081E+002 -3.572333519319753E+000 -1.080188202436081E+002 -3.572333519319753E+000 -1.080188202436081E+002 -3.572333519319753E+000 -1.080188202436081E+002 
2.170000000000000E+009 -3.611418634945510E+000 -1.093607904702668E+002 -3.611418634945510E+000 -1.093607904702668E+002 -3.611418634945510E+000 -1.093607904702668E+002 -3.611418634945510E+000 -1.093607904702668E+002 
2.175000000000000E+009 -3.653031314013886E+000 -1.106512911346814E+002 -3.653031314013886E+000 -1.106512911346814E+002 -3.653031314013886E+000 -1.106512911346814E+002 -3.653031314013886E+000 -1.106512911346814E+002 
2.180000000000000E+009 -3.697460208585408E+000 -1.118596457750213E+002 -3.697460208585408E+000 -1.118596457750213E+002 -3.697460208585408E+000 -1.118596457750213E+002 -3.697460208585408E+000 -1.118596457750213E+002 
2.185000000000000E+009 -3.733870650349248E+000 -1.129424618077178E+002 -3.733870650349248E+000 -1.129424618077178E+002 -3.733870650349248E+000 -1.129424618077178E+002 -3.733870650349248E+000 -1.129424618077178E+002 
2.190000000000000E+009 -3.763672230989818E+000 -1.140363287707959E+002 -3.763672230989818E+000 -1.140363287707959E+002 -3.763672230989818E+000 -1.140363287707959E+002 -3.763672230989818E+000 -1.140363287707959E+002 
2.195000000000000E+009 -3.792675763516890E+000 -1.150804366609798E+002 -3.792675763516890E+000 -1.150804366609798E+002 -3.792675763516890E+000 -1.150804366609798E+002 -3.792675763516890E+000 -1.150804366609798E+002 
2.200000000000000E+009 -3.814035943220103E+000 -1.161154439976188E+002 -3.814035943220103E+000 -1.161154439976188E+002 -3.814035943220103E+000 -1.161154439976188E+002 -3.814035943220103E+000 -1.161154439976188E+002 
2.205000000000000E+009 -3.835503018719180E+000 -1.171228877111543E+002 -3.835503018719180E+000 -1.171228877111543E+002 -3.835503018719180E+000 -1.171228877111543E+002 -3.835503018719180E+000 -1.171228877111543E+002 
2.210000000000000E+009 -3.842136324911064E+000 -1.180911542678988E+002 -3.842136324911064E+000 -1.180911542678988E+002 -3.842136324911064E+000 -1.180911542678988E+002 -3.842136324911064E+000 -1.180911542678988E+002 
2.215000000000000E+009 -3.843081192246852E+000 -1.190868022465553E+002 -3.843081192246852E+000 -1.190868022465553E+002 -3.843081192246852E+000 -1.190868022465553E+002 -3.843081192246852E+000 -1.190868022465553E+002 
2.220000000000000E+009 -3.841210820468517E+000 -1.200840169201134E+002 -3.841210820468517E+000 -1.200840169201134E+002 -3.841210820468517E+000 -1.200840169201134E+002 -3.841210820468517E+000 -1.200840169201134E+002 
2.225000000000000E+009 -3.829056125868391E+000 -1.210888107718880E+002 -3.829056125868391E+000 -1.210888107718880E+002 -3.829056125868391E+000 -1.210888107718880E+002 -3.829056125868391E+000 -1.210888107718880E+002 
2.230000000000000E+009 -3.813185855293066E+000 -1.221784536355192E+002 -3.813185855293066E+000 -1.221784536355192E+002 -3.813185855293066E+000 -1.221784536355192E+002 -3.813185855293066E+000 -1.221784536355192E+002 
2.235000000000000E+009 -3.797001272712007E+000 -1.233029372847863E+002 -3.797001272712007E+000 -1.233029372847863E+002 -3.797001272712007E+000 -1.233029372847863E+002 -3.797001272712007E+000 -1.233029372847863E+002 
2.240000000000000E+009 -3.776147275622851E+000 -1.244275820217045E+002 -3.776147275622851E+000 -1.244275820217045E+002 -3.776147275622851E+000 -1.244275820217045E+002 -3.776147275622851E+000 -1.244275820217045E+002 
2.245000000000000E+009 -3.756315090207161E+000 -1.256266957726581E+002 -3.756315090207161E+000 -1.256266957726581E+002 -3.756315090207161E+000 -1.256266957726581E+002 -3.756315090207161E+000 -1.256266957726581E+002 
2.250000000000000E+009 -3.740777345639876E+000 -1.268787233809242E+002 -3.740777345639876E+000 -1.268787233809242E+002 -3.740777345639876E+000 -1.268787233809242E+002 -3.740777345639876E+000 -1.268787233809242E+002 
2.255000000000000E+009 -3.736838450409870E+000 -1.281859828886125E+002 -3.736838450409870E+000 -1.281859828886125E+002 -3.736838450409870E+000 -1.281859828886125E+002 -3.736838450409870E+000 -1.281859828886125E+002 
2.260000000000000E+009 -3.736854860538301E+000 -1.294616717423365E+002 -3.736854860538301E+000 -1.294616717423365E+002 -3.736854860538301E+000 -1.294616717423365E+002 -3.736854860538301E+000 -1.294616717423365E+002 
2.265000000000000E+009 -3.743735389947984E+000 -1.307288981846430E+002 -3.743735389947984E+000 -1.307288981846430E+002 -3.743735389947984E+000 -1.307288981846430E+002 -3.743735389947984E+000 -1.307288981846430E+002 
2.270000000000000E+009 -3.748554186868391E+000 -1.319758924105005E+002 -3.748554186868391E+000 -1.319758924105005E+002 -3.748554186868391E+000 -1.319758924105005E+002 -3.748554186868391E+000 -1.319758924105005E+002 
2.275000000000000E+009 -3.755400238899864E+000 -1.332550261855801E+002 -3.755400238899864E+000 -1.332550261855801E+002 -3.755400238899864E+000 -1.332550261855801E+002 -3.755400238899864E+000 -1.332550261855801E+002 
2.280000000000000E+009 -3.764469859594493E+000 -1.345360920527680E+002 -3.764469859594493E+000 -1.345360920527680E+002 -3.764469859594493E+000 -1.345360920527680E+002 -3.764469859594493E+000 -1.345360920527680E+002 
2.285000000000000E+009 -3.774996300208555E+000 -1.358186210296161E+002 -3.774996300208555E+000 -1.358186210296161E+002 -3.774996300208555E+000 -1.358186210296161E+002 -3.774996300208555E+000 -1.358186210296161E+002 
2.290000000000000E+009 -3.789364496930009E+000 -1.371358371947111E+002 -3.789364496930009E+000 -1.371358371947111E+002 -3.789364496930009E+000 -1.371358371947111E+002 -3.789364496930009E+000 -1.371358371947111E+002 
2.295000000000000E+009 -3.814516686897103E+000 -1.384347344251389E+002 -3.814516686897103E+000 -1.384347344251389E+002 -3.814516686897103E+000 -1.384347344251389E+002 -3.814516686897103E+000 -1.384347344251389E+002 
2.300000000000000E+009 -3.845677981571535E+000 -1.397012706189411E+002 -3.845677981571535E+000 -1.397012706189411E+002 -3.845677981571535E+000 -1.397012706189411E+002 -3.845677981571535E+000 -1.397012706189411E+002 
2.305000000000000E+009 -3.874163195083455E+000 -1.409035741005610E+002 -3.874163195083455E+000 -1.409035741005610E+002 -3.874163195083455E+000 -1.409035741005610E+002 -3.874163195083455E+000 -1.409035741005610E+002 
2.310000000000000E+009 -3.900610907692644E+000 -1.420926791117598E+002 -3.900610907692644E+000 -1.420926791117598E+002 -3.900610907692644E+000 -1.420926791117598E+002 -3.900610907692644E+000 -1.420926791117598E+002 
2.315000000000000E+009 -3.924695658266824E+000 -1.432479770100142E+002 -3.924695658266824E+000 -1.432479770100142E+002 -3.924695658266824E+000 -1.432479770100142E+002 -3.924695658266824E+000 -1.432479770100142E+002 
2.320000000000000E+009 -3.939713307902236E+000 -1.444615089718030E+002 -3.939713307902236E+000 -1.444615089718030E+002 -3.939713307902236E+000 -1.444615089718030E+002 -3.939713307902236E+000 -1.444615089718030E+002 
2.325000000000000E+009 -3.956638836634585E+000 -1.457039126760940E+002 -3.956638836634585E+000 -1.457039126760940E+002 -3.956638836634585E+000 -1.457039126760940E+002 -3.956638836634585E+000 -1.457039126760940E+002 
2.330000000000000E+009 -3.985599295972609E+000 -1.469773092698380E+002 -3.985599295972609E+000 -1.469773092698380E+002 -3.985599295972609E+000 -1.469773092698380E+002 -3.985599295972609E+000 -1.469773092698380E+002 
2.335000000000000E+009 -4.015008371595090E+000 -1.482055610926246E+002 -4.015008371595090E+000 -1.482055610926246E+002 -4.015008371595090E+000 -1.482055610926246E+002 -4.015008371595090E+000 -1.482055610926246E+002 
2.340000000000000E+009 -4.049708464080110E+000 -1.494140136157328E+002 -4.049708464080110E+000 -1.494140136157328E+002 -4.049708464080110E+000 -1.494140136157328E+002 -4.049708464080110E+000 -1.494140136157328E+002 
2.345000000000000E+009 -4.088609652827757E+000 -1.506064396069864E+002 -4.088609652827757E+000 -1.506064396069864E+002 -4.088609652827757E+000 -1.506064396069864E+002 -4.088609652827757E+000 -1.506064396069864E+002 
2.350000000000000E+009 -4.127001484216973E+000 -1.517535898406064E+002 -4.127001484216973E+000 -1.517535898406064E+002 -4.127001484216973E+000 -1.517535898406064E+002 -4.127001484216973E+000 -1.517535898406064E+002 
2.355000000000000E+009 -4.158889647444202E+000 -1.528512693891379E+002 -4.158889647444202E+000 -1.528512693891379E+002 -4.158889647444202E+000 -1.528512693891379E+002 -4.158889647444202E+000 -1.528512693891379E+002 
2.360000000000000E+009 -4.187024887135428E+000 -1.539741363672156E+002 -4.187024887135428E+000 -1.539741363672156E+002 -4.187024887135428E+000 -1.539741363672156E+002 -4.187024887135428E+000 -1.539741363672156E+002 
2.365000000000000E+009 -4.208271521735936E+000 -1.551114439389907E+002 -4.208271521735936E+000 -1.551114439389907E+002 -4.208271521735936E+000 -1.551114439389907E+002 -4.208271521735936E+000 -1.551114439389907E+002 
2.370000000000000E+009 -4.235927947303740E+000 -1.562720868893618E+002 -4.235927947303740E+000 -1.562720868893618E+002 -4.235927947303740E+000 -1.562720868893618E+002 -4.235927947303740E+000 -1.562720868893618E+002 
2.375000000000000E+009 -4.262626462079904E+000 -1.574444520535850E+002 -4.262626462079904E+000 -1.574444520535850E+002 -4.262626462079904E+000 -1.574444520535850E+002 -4.262626462079904E+000 -1.574444520535850E+002 
2.380000000000000E+009 -4.293265443849030E+000 -1.586599005895226E+002 -4.293265443849030E+000 -1.586599005895226E+002 -4.293265443849030E+000 -1.586599005895226E+002 -4.293265443849030E+000 -1.586599005895226E+002 
2.385000000000000E+009 -4.339594538935163E+000 -1.598508262945624E+002 -4.339594538935163E+000 -1.598508262945624E+002 -4.339594538935163E+000 -1.598508262945624E+002 -4.339594538935163E+000 -1.598508262945624E+002 
2.390000000000000E+009 -4.377820097699419E+000 -1.609821207308946E+002 -4.377820097699419E+000 -1.609821207308946E+002 -4.377820097699419E+000 -1.609821207308946E+002 -4.377820097699419E+000 -1.609821207308946E+002 
2.395000000000000E+009 -4.419603758717224E+000 -1.621305826433954E+002 -4.419603758717224E+000 -1.621305826433954E+002 -4.419603758717224E+000 -1.621305826433954E+002 -4.419603758717224E+000 -1.621305826433954E+002 
2.400000000000000E+009 -4.463697649013755E+000 -1.632547385018218E+002 -4.463697649013755E+000 -1.632547385018218E+002 -4.463697649013755E+000 -1.632547385018218E+002 -4.463697649013755E+000 -1.632547385018218E+002 
