# Version 1.00
#
freq[Hz] db:Trc1_S11 ang:Trc1_S11 db:Trc2_S11 ang:Trc2_S11 db:Trc3_S11 ang:Trc3_S11 db:Trc4_S11 ang:Trc4_S11 
1.950000000000000E+009 -3.028055346494003E+000 -6.132861523843714E+001 -3.028055346494003E+000 -6.132861523843714E+001 -3.028055346494003E+000 -6.132861523843714E+001 -3.028055346494003E+000 -6.132861523843714E+001 
1.955000000000000E+009 -3.084429916528522E+000 -6.261105522480942E+001 -3.084429916528522E+000 -6.261105522480942E+001 -3.084429916528522E+000 -6.261105522480942E+001 -3.084429916528522E+000 -6.261105522480942E+001 
1.960000000000000E+009 -3.146028086046924E+000 -6.385702394948674E+001 -3.146028086046924E+000 -6.385702394948674E+001 -3.146028086046924E+000 -6.385702394948674E+001 -3.146028086046924E+000 -6.385702394948674E+001 
1.965000000000000E+009 -3.211360937710258E+000 -6.506865881575028E+001 -3.211360937710258E+000 -6.506865881575028E+001 -3.211360937710258E+000 -6.506865881575028E+001 -3.211360937710258E+000 -6.506865881575028E+001 
1.970000000000000E+009 -3.271874460235123E+000 -6.623343628764553E+001 -3.271874460235123E+000 -6.623343628764553E+001 -3.271874460235123E+000 -6.623343628764553E+001 -3.271874460235123E+000 -6.623343628764553E+001 
1.975000000000000E+009 -3.334934350633468E+000 -6.737940962298603E+001 -3.334934350633468E+000 -6.737940962298603E+001 -3.334934350633468E+000 -6.737940962298603E+001 -3.334934350633468E+000 -6.737940962298603E+001 
1.980000000000000E+009 -3.397650679008382E+000 -6.852198714676987E+001 -3.397650679008382E+000 -6.852198714676987E+001 -3.397650679008382E+000 -6.852198714676987E+001 -3.397650679008382E+000 -6.852198714676987E+001 
1.985000000000000E+009 -3.468027396050349E+000 -6.956380035606608E+001 -3.468027396050349E+000 -6.956380035606608E+001 -3.468027396050349E+000 -6.956380035606608E+001 -3.468027396050349E+000 -6.956380035606608E+001 
1.990000000000000E+009 -3.537028425079913E+000 -7.059631821831732E+001 -3.537028425079913E+000 -7.059631821831732E+001 -3.537028425079913E+000 -7.059631821831732E+001 -3.537028425079913E+000 -7.059631821831732E+001 
1.995000000000000E+009 -3.603570812942497E+000 -7.153324700034061E+001 -3.603570812942497E+000 -7.153324700034061E+001 -3.603570812942497E+000 -7.153324700034061E+001 -3.603570812942497E+000 -7.153324700034061E+001 
2.000000000000000E+009 -3.664445819837927E+000 -7.242716731570414E+001 -3.664445819837927E+000 -7.242716731570414E+001 -3.664445819837927E+000 -7.242716731570414E+001 -3.664445819837927E+000 -7.242716731570414E+001 
2.005000000000000E+009 -3.713351172190126E+000 -7.328961599469218E+001 -3.713351172190126E+000 -7.328961599469218E+001 -3.713351172190126E+000 -7.328961599469218E+001 -3.713351172190126E+000 -7.328961599469218E+001 
2.010000000000000E+009 -3.749739472245634E+000 -7.414305907404146E+001 -3.749739472245634E+000 -7.414305907404146E+001 -3.749739472245634E+000 -7.414305907404146E+001 -3.749739472245634E+000 -7.414305907404146E+001 
2.015000000000000E+009 -3.783455283129969E+000 -7.501147766931848E+001 -3.783455283129969E+000 -7.501147766931848E+001 -3.783455283129969E+000 -7.501147766931848E+001 -3.783455283129969E+000 -7.501147766931848E+001 
2.020000000000000E+009 -3.813890639874993E+000 -7.591051112682021E+001 -3.813890639874993E+000 -7.591051112682021E+001 -3.813890639874993E+000 -7.591051112682021E+001 -3.813890639874993E+000 -7.591051112682021E+001 
2.025000000000000E+009 -3.847333607254979E+000 -7.680036437598180E+001 -3.847333607254979E+000 -7.680036437598180E+001 -3.847333607254979E+000 -7.680036437598180E+001 -3.847333607254979E+000 -7.680036437598180E+001 
2.030000000000000E+009 -3.878432468619997E+000 -7.764178305508648E+001 -3.878432468619997E+000 -7.764178305508648E+001 -3.878432468619997E+000 -7.764178305508648E+001 -3.878432468619997E+000 -7.764178305508648E+001 
2.035000000000000E+009 -3.906017412203561E+000 -7.842001769354998E+001 -3.906017412203561E+000 -7.842001769354998E+001 -3.906017412203561E+000 -7.842001769354998E+001 -3.906017412203561E+000 -7.842001769354998E+001 
2.040000000000000E+009 -3.917067280649694E+000 -7.916372350388366E+001 -3.917067280649694E+000 -7.916372350388366E+001 -3.917067280649694E+000 -7.916372350388366E+001 -3.917067280649694E+000 -7.916372350388366E+001 
2.045000000000000E+009 -3.914887120966224E+000 -7.993411914948102E+001 -3.914887120966224E+000 -7.993411914948102E+001 -3.914887120966224E+000 -7.993411914948102E+001 -3.914887120966224E+000 -7.993411914948102E+001 
2.050000000000000E+009 -3.903673588264241E+000 -8.079243284176123E+001 -3.903673588264241E+000 -8.079243284176123E+001 -3.903673588264241E+000 -8.079243284176123E+001 -3.903673588264241E+000 -8.079243284176123E+001 
2.055000000000000E+009 -3.893365665201286E+000 -8.164631992202185E+001 -3.893365665201286E+000 -8.164631992202185E+001 -3.893365665201286E+000 -8.164631992202185E+001 -3.893365665201286E+000 -8.164631992202185E+001 
2.060000000000000E+009 -3.880741693340435E+000 -8.257258752077294E+001 -3.880741693340435E+000 -8.257258752077294E+001 -3.880741693340435E+000 -8.257258752077294E+001 -3.880741693340435E+000 -8.257258752077294E+001 
2.065000000000000E+009 -3.864566474204181E+000 -8.343281590430858E+001 -3.864566474204181E+000 -8.343281590430858E+001 -3.864566474204181E+000 -8.343281590430858E+001 -3.864566474204181E+000 -8.343281590430858E+001 
2.070000000000000E+009 -3.837750160568635E+000 -8.438054504828133E+001 -3.837750160568635E+000 -8.438054504828133E+001 -3.837750160568635E+000 -8.438054504828133E+001 -3.837750160568635E+000 -8.438054504828133E+001 
2.075000000000000E+009 -3.812378769639587E+000 -8.537192701200011E+001 -3.812378769639587E+000 -8.537192701200011E+001 -3.812378769639587E+000 -8.537192701200011E+001 -3.812378769639587E+000 -8.537192701200011E+001 
2.080000000000000E+009 -3.776767823513938E+000 -8.639948764108567E+001 -3.776767823513938E+000 -8.639948764108567E+001 -3.776767823513938E+000 -8.639948764108567E+001 -3.776767823513938E+000 -8.639948764108567E+001 
2.085000000000000E+009 -3.746903083268373E+000 -8.750821584562895E+001 -3.746903083268373E+000 -8.750821584562895E+001 -3.746903083268373E+000 -8.750821584562895E+001 -3.746903083268373E+000 -8.750821584562895E+001 
2.090000000000000E+009 -3.720969177058423E+000 -8.865304363313869E+001 -3.720969177058423E+000 -8.865304363313869E+001 -3.720969177058423E+000 -8.865304363313869E+001 -3.720969177058423E+000 -8.865304363313869E+001 
2.095000000000000E+009 -3.702681698137949E+000 -8.981391325296997E+001 -3.702681698137949E+000 -8.981391325296997E+001 -3.702681698137949E+000 -8.981391325296997E+001 -3.702681698137949E+000 -8.981391325296997E+001 
2.100000000000000E+009 -3.680011728947904E+000 -9.096838479992945E+001 -3.680011728947904E+000 -9.096838479992945E+001 -3.680011728947904E+000 -9.096838479992945E+001 -3.680011728947904E+000 -9.096838479992945E+001 
2.105000000000000E+009 -3.662623862154403E+000 -9.217961084466745E+001 -3.662623862154403E+000 -9.217961084466745E+001 -3.662623862154403E+000 -9.217961084466745E+001 -3.662623862154403E+000 -9.217961084466745E+001 
2.110000000000000E+009 -3.649208119795635E+000 -9.339053429337625E+001 -3.649208119795635E+000 -9.339053429337625E+001 -3.649208119795635E+000 -9.339053429337625E+001 -3.649208119795635E+000 -9.339053429337625E+001 
2.115000000000000E+009 -3.636512907061547E+000 -9.461409276852355E+001 -3.636512907061547E+000 -9.461409276852355E+001 -3.636512907061547E+000 -9.461409276852355E+001 -3.636512907061547E+000 -9.461409276852355E+001 
2.120000000000000E+009 -3.623802116711202E+000 -9.580630192770367E+001 -3.623802116711202E+000 -9.580630192770367E+001 -3.623802116711202E+000 -9.580630192770367E+001 -3.623802116711202E+000 -9.580630192770367E+001 
2.125000000000000E+009 -3.607740222737823E+000 -9.702796279751156E+001 -3.607740222737823E+000 -9.702796279751156E+001 -3.607740222737823E+000 -9.702796279751156E+001 -3.607740222737823E+000 -9.702796279751156E+001 
2.130000000000000E+009 -3.585571414442903E+000 -9.828449853286902E+001 -3.585571414442903E+000 -9.828449853286902E+001 -3.585571414442903E+000 -9.828449853286902E+001 -3.585571414442903E+000 -9.828449853286902E+001 
2.135000000000000E+009 -3.563135986401590E+000 -9.961707097450064E+001 -3.563135986401590E+000 -9.961707097450064E+001 -3.563135986401590E+000 -9.961707097450064E+001 -3.563135986401590E+000 -9.961707097450064E+001 
2.140000000000000E+009 -3.551815249932445E+000 -1.010051148785153E+002 -3.551815249932445E+000 -1.010051148785153E+002 -3.551815249932445E+000 -1.010051148785153E+002 -3.551815249932445E+000 -1.010051148785153E+002 
2.145000000000000E+009 -3.549875345532782E+000 -1.024144196848727E+002 -3.549875345532782E+000 -1.024144196848727E+002 -3.549875345532782E+000 -1.024144196848727E+002 -3.549875345532782E+000 -1.024144196848727E+002 
2.150000000000000E+009 -3.554348956545451E+000 -1.038105842733374E+002 -3.554348956545451E+000 -1.038105842733374E+002 -3.554348956545451E+000 -1.038105842733374E+002 -3.554348956545451E+000 -1.038105842733374E+002 
2.155000000000000E+009 -3.564064175218298E+000 -1.052361201586316E+002 -3.564064175218298E+000 -1.052361201586316E+002 -3.564064175218298E+000 -1.052361201586316E+002 -3.564064175218298E+000 -1.052361201586316E+002 
2.160000000000000E+009 -3.587593699859500E+000 -1.066163368288739E+002 -3.587593699859500E+000 -1.066163368288739E+002 -3.587593699859500E+000 -1.066163368288739E+002 -3.587593699859500E+000 -1.066163368288739E+002 
2.165000000000000E+009 -3.611973889092484E+000 -1.079681506932599E+002 -3.611973889092484E+000 -1.079681506932599E+002 -3.611973889092484E+000 -1.079681506932599E+002 -3.611973889092484E+000 -1.079681506932599E+002 
2.170000000000000E+009 -3.649353613033566E+000 -1.092943823928738E+002 -3.649353613033566E+000 -1.092943823928738E+002 -3.649353613033566E+000 -1.092943823928738E+002 -3.649353613033566E+000 -1.092943823928738E+002 
2.175000000000000E+009 -3.693128943060892E+000 -1.105445147411981E+002 -3.693128943060892E+000 -1.105445147411981E+002 -3.693128943060892E+000 -1.105445147411981E+002 -3.693128943060892E+000 -1.105445147411981E+002 
2.180000000000000E+009 -3.738111314029090E+000 -1.117156065675714E+002 -3.738111314029090E+000 -1.117156065675714E+002 -3.738111314029090E+000 -1.117156065675714E+002 -3.738111314029090E+000 -1.117156065675714E+002 
2.185000000000000E+009 -3.773221022009631E+000 -1.127909305873900E+002 -3.773221022009631E+000 -1.127909305873900E+002 -3.773221022009631E+000 -1.127909305873900E+002 -3.773221022009631E+000 -1.127909305873900E+002 
2.190000000000000E+009 -3.803436983409957E+000 -1.138236530614968E+002 -3.803436983409957E+000 -1.138236530614968E+002 -3.803436983409957E+000 -1.138236530614968E+002 -3.803436983409957E+000 -1.138236530614968E+002 
2.195000000000000E+009 -3.827552406785390E+000 -1.148307925835435E+002 -3.827552406785390E+000 -1.148307925835435E+002 -3.827552406785390E+000 -1.148307925835435E+002 -3.827552406785390E+000 -1.148307925835435E+002 
2.200000000000000E+009 -3.842977094013707E+000 -1.158036148376773E+002 -3.842977094013707E+000 -1.158036148376773E+002 -3.842977094013707E+000 -1.158036148376773E+002 -3.842977094013707E+000 -1.158036148376773E+002 
2.205000000000000E+009 -3.858333127733635E+000 -1.167894830861426E+002 -3.858333127733635E+000 -1.167894830861426E+002 -3.858333127733635E+000 -1.167894830861426E+002 -3.858333127733635E+000 -1.167894830861426E+002 
2.210000000000000E+009 -3.857025154116775E+000 -1.177255079336972E+002 -3.857025154116775E+000 -1.177255079336972E+002 -3.857025154116775E+000 -1.177255079336972E+002 -3.857025154116775E+000 -1.177255079336972E+002 
2.215000000000000E+009 -3.846619269465887E+000 -1.187048504499335E+002 -3.846619269465887E+000 -1.187048504499335E+002 -3.846619269465887E+000 -1.187048504499335E+002 -3.846619269465887E+000 -1.187048504499335E+002 
2.220000000000000E+009 -3.835766763004418E+000 -1.197252822039859E+002 -3.835766763004418E+000 -1.197252822039859E+002 -3.835766763004418E+000 -1.197252822039859E+002 -3.835766763004418E+000 -1.197252822039859E+002 
2.225000000000000E+009 -3.815405014721363E+000 -1.207714681319908E+002 -3.815405014721363E+000 -1.207714681319908E+002 -3.815405014721363E+000 -1.207714681319908E+002 -3.815405014721363E+000 -1.207714681319908E+002 
2.230000000000000E+009 -3.795670245968820E+000 -1.218845773630923E+002 -3.795670245968820E+000 -1.218845773630923E+002 -3.795670245968820E+000 -1.218845773630923E+002 -3.795670245968820E+000 -1.218845773630923E+002 
2.235000000000000E+009 -3.776783473961147E+000 -1.229986908008738E+002 -3.776783473961147E+000 -1.229986908008738E+002 -3.776783473961147E+000 -1.229986908008738E+002 -3.776783473961147E+000 -1.229986908008738E+002 
2.240000000000000E+009 -3.748753069592801E+000 -1.241540146950921E+002 -3.748753069592801E+000 -1.241540146950921E+002 -3.748753069592801E+000 -1.241540146950921E+002 -3.748753069592801E+000 -1.241540146950921E+002 
2.245000000000000E+009 -3.726806215746663E+000 -1.253721925624260E+002 -3.726806215746663E+000 -1.253721925624260E+002 -3.726806215746663E+000 -1.253721925624260E+002 -3.726806215746663E+000 -1.253721925624260E+002 
2.250000000000000E+009 -3.707525530391528E+000 -1.266644079875151E+002 -3.707525530391528E+000 -1.266644079875151E+002 -3.707525530391528E+000 -1.266644079875151E+002 -3.707525530391528E+000 -1.266644079875151E+002 
2.255000000000000E+009 -3.698393715574309E+000 -1.279893093487636E+002 -3.698393715574309E+000 -1.279893093487636E+002 -3.698393715574309E+000 -1.279893093487636E+002 -3.698393715574309E+000 -1.279893093487636E+002 
2.260000000000000E+009 -3.699906078800193E+000 -1.293196114888491E+002 -3.699906078800193E+000 -1.293196114888491E+002 -3.699906078800193E+000 -1.293196114888491E+002 -3.699906078800193E+000 -1.293196114888491E+002 
2.265000000000000E+009 -3.707176344279711E+000 -1.306027057301341E+002 -3.707176344279711E+000 -1.306027057301341E+002 -3.707176344279711E+000 -1.306027057301341E+002 -3.707176344279711E+000 -1.306027057301341E+002 
2.270000000000000E+009 -3.709112627345332E+000 -1.318684525244140E+002 -3.709112627345332E+000 -1.318684525244140E+002 -3.709112627345332E+000 -1.318684525244140E+002 -3.709112627345332E+000 -1.318684525244140E+002 
2.275000000000000E+009 -3.717926375190769E+000 -1.331666318587301E+002 -3.717926375190769E+000 -1.331666318587301E+002 -3.717926375190769E+000 -1.331666318587301E+002 -3.717926375190769E+000 -1.331666318587301E+002 
2.280000000000000E+009 -3.725373594033145E+000 -1.344284341178258E+002 -3.725373594033145E+000 -1.344284341178258E+002 -3.725373594033145E+000 -1.344284341178258E+002 -3.725373594033145E+000 -1.344284341178258E+002 
2.285000000000000E+009 -3.733598975415173E+000 -1.357500264154749E+002 -3.733598975415173E+000 -1.357500264154749E+002 -3.733598975415173E+000 -1.357500264154749E+002 -3.733598975415173E+000 -1.357500264154749E+002 
2.290000000000000E+009 -3.749446010739734E+000 -1.370490650299883E+002 -3.749446010739734E+000 -1.370490650299883E+002 -3.749446010739734E+000 -1.370490650299883E+002 -3.749446010739734E+000 -1.370490650299883E+002 
2.295000000000000E+009 -3.768724103183312E+000 -1.383544533989167E+002 -3.768724103183312E+000 -1.383544533989167E+002 -3.768724103183312E+000 -1.383544533989167E+002 -3.768724103183312E+000 -1.383544533989167E+002 
2.300000000000000E+009 -3.796792429924763E+000 -1.396293011583864E+002 -3.796792429924763E+000 -1.396293011583864E+002 -3.796792429924763E+000 -1.396293011583864E+002 -3.796792429924763E+000 -1.396293011583864E+002 
2.305000000000000E+009 -3.821168093907667E+000 -1.408800963978334E+002 -3.821168093907667E+000 -1.408800963978334E+002 -3.821168093907667E+000 -1.408800963978334E+002 -3.821168093907667E+000 -1.408800963978334E+002 
2.310000000000000E+009 -3.846791183762239E+000 -1.421212598588323E+002 -3.846791183762239E+000 -1.421212598588323E+002 -3.846791183762239E+000 -1.421212598588323E+002 -3.846791183762239E+000 -1.421212598588323E+002 
2.315000000000000E+009 -3.869731465141446E+000 -1.433138046469831E+002 -3.869731465141446E+000 -1.433138046469831E+002 -3.869731465141446E+000 -1.433138046469831E+002 -3.869731465141446E+000 -1.433138046469831E+002 
2.320000000000000E+009 -3.890182199545401E+000 -1.445497859112089E+002 -3.890182199545401E+000 -1.445497859112089E+002 -3.890182199545401E+000 -1.445497859112089E+002 -3.890182199545401E+000 -1.445497859112089E+002 
2.325000000000000E+009 -3.910958436344183E+000 -1.458253308135494E+002 -3.910958436344183E+000 -1.458253308135494E+002 -3.910958436344183E+000 -1.458253308135494E+002 -3.910958436344183E+000 -1.458253308135494E+002 
2.330000000000000E+009 -3.942127419106159E+000 -1.470914273033346E+002 -3.942127419106159E+000 -1.470914273033346E+002 -3.942127419106159E+000 -1.470914273033346E+002 -3.942127419106159E+000 -1.470914273033346E+002 
2.335000000000000E+009 -3.971882316164026E+000 -1.483230543952744E+002 -3.971882316164026E+000 -1.483230543952744E+002 -3.971882316164026E+000 -1.483230543952744E+002 -3.971882316164026E+000 -1.483230543952744E+002 
2.340000000000000E+009 -4.007752029483414E+000 -1.495202360974010E+002 -4.007752029483414E+000 -1.495202360974010E+002 -4.007752029483414E+000 -1.495202360974010E+002 -4.007752029483414E+000 -1.495202360974010E+002 
2.345000000000000E+009 -4.045420023052349E+000 -1.507076566564439E+002 -4.045420023052349E+000 -1.507076566564439E+002 -4.045420023052349E+000 -1.507076566564439E+002 -4.045420023052349E+000 -1.507076566564439E+002 
2.350000000000000E+009 -4.080645312949166E+000 -1.518446551496478E+002 -4.080645312949166E+000 -1.518446551496478E+002 -4.080645312949166E+000 -1.518446551496478E+002 -4.080645312949166E+000 -1.518446551496478E+002 
2.355000000000000E+009 -4.107820881812939E+000 -1.529495684163192E+002 -4.107820881812939E+000 -1.529495684163192E+002 -4.107820881812939E+000 -1.529495684163192E+002 -4.107820881812939E+000 -1.529495684163192E+002 
2.360000000000000E+009 -4.128360932274562E+000 -1.541348242370180E+002 -4.128360932274562E+000 -1.541348242370180E+002 -4.128360932274562E+000 -1.541348242370180E+002 -4.128360932274562E+000 -1.541348242370180E+002 
2.365000000000000E+009 -4.153408717209248E+000 -1.553172132200941E+002 -4.153408717209248E+000 -1.553172132200941E+002 -4.153408717209248E+000 -1.553172132200941E+002 -4.153408717209248E+000 -1.553172132200941E+002 
2.370000000000000E+009 -4.182810559479524E+000 -1.565051450878199E+002 -4.182810559479524E+000 -1.565051450878199E+002 -4.182810559479524E+000 -1.565051450878199E+002 -4.182810559479524E+000 -1.565051450878199E+002 
2.375000000000000E+009 -4.209547352767856E+000 -1.577213083353477E+002 -4.209547352767856E+000 -1.577213083353477E+002 -4.209547352767856E+000 -1.577213083353477E+002 -4.209547352767856E+000 -1.577213083353477E+002 
2.380000000000000E+009 -4.242053113694615E+000 -1.589713830421129E+002 -4.242053113694615E+000 -1.589713830421129E+002 -4.242053113694615E+000 -1.589713830421129E+002 -4.242053113694615E+000 -1.589713830421129E+002 
2.385000000000000E+009 -4.287464305259817E+000 -1.601884966387538E+002 -4.287464305259817E+000 -1.601884966387538E+002 -4.287464305259817E+000 -1.601884966387538E+002 -4.287464305259817E+000 -1.601884966387538E+002 
2.390000000000000E+009 -4.330127351372889E+000 -1.613688245023153E+002 -4.330127351372889E+000 -1.613688245023153E+002 -4.330127351372889E+000 -1.613688245023153E+002 -4.330127351372889E+000 -1.613688245023153E+002 
2.395000000000000E+009 -4.378720418067566E+000 -1.625387582570421E+002 -4.378720418067566E+000 -1.625387582570421E+002 -4.378720418067566E+000 -1.625387582570421E+002 -4.378720418067566E+000 -1.625387582570421E+002 
2.400000000000000E+009 -4.427842573468376E+000 -1.636857608979859E+002 -4.427842573468376E+000 -1.636857608979859E+002 -4.427842573468376E+000 -1.636857608979859E+002 -4.427842573468376E+000 -1.636857608979859E+002 
