% Version 1.00
%
%freq[Hz],db:Trc1_S11,ang:Trc1_S11,db:Trc2_S11,ang:Trc2_S11,db:Trc3_S11,ang:Trc3_S11,db:Trc4_S11,ang:Trc4_S11,
1.950000000000000E+009,-3.597863740314983E+000,-1.446327228188190E+002,-3.597863740314983E+000,-1.446327228188190E+002,-3.597863740314983E+000,-1.446327228188190E+002,-3.597863740314983E+000,-1.446327228188190E+002,
1.955000000000000E+009,-3.688929636272959E+000,-1.459846608950415E+002,-3.688929636272959E+000,-1.459846608950415E+002,-3.688929636272959E+000,-1.459846608950415E+002,-3.688929636272959E+000,-1.459846608950415E+002,
1.960000000000000E+009,-3.797565914890330E+000,-1.475249646096943E+002,-3.797565914890330E+000,-1.475249646096943E+002,-3.797565914890330E+000,-1.475249646096943E+002,-3.797565914890330E+000,-1.475249646096943E+002,
1.965000000000000E+009,-3.922240829936877E+000,-1.493380228517586E+002,-3.922240829936877E+000,-1.493380228517586E+002,-3.922240829936877E+000,-1.493380228517586E+002,-3.922240829936877E+000,-1.493380228517586E+002,
1.970000000000000E+009,-4.048708034918248E+000,-1.514627328079739E+002,-4.048708034918248E+000,-1.514627328079739E+002,-4.048708034918248E+000,-1.514627328079739E+002,-4.048708034918248E+000,-1.514627328079739E+002,
1.975000000000000E+009,-4.180180287863234E+000,-1.539127692677181E+002,-4.180180287863234E+000,-1.539127692677181E+002,-4.180180287863234E+000,-1.539127692677181E+002,-4.180180287863234E+000,-1.539127692677181E+002,
1.980000000000000E+009,-4.301539438931468E+000,-1.567328005179959E+002,-4.301539438931468E+000,-1.567328005179959E+002,-4.301539438931468E+000,-1.567328005179959E+002,-4.301539438931468E+000,-1.567328005179959E+002,
1.985000000000000E+009,-4.411209882123846E+000,-1.598970246693620E+002,-4.411209882123846E+000,-1.598970246693620E+002,-4.411209882123846E+000,-1.598970246693620E+002,-4.411209882123846E+000,-1.598970246693620E+002,
1.990000000000000E+009,-4.498535108965249E+000,-1.633601328341663E+002,-4.498535108965249E+000,-1.633601328341663E+002,-4.498535108965249E+000,-1.633601328341663E+002,-4.498535108965249E+000,-1.633601328341663E+002,
1.995000000000000E+009,-4.555430389425322E+000,-1.671274966653253E+002,-4.555430389425322E+000,-1.671274966653253E+002,-4.555430389425322E+000,-1.671274966653253E+002,-4.555430389425322E+000,-1.671274966653253E+002,
2.000000000000000E+009,-4.575616801632283E+000,-1.710431957999016E+002,-4.575616801632283E+000,-1.710431957999016E+002,-4.575616801632283E+000,-1.710431957999016E+002,-4.575616801632283E+000,-1.710431957999016E+002,
2.005000000000000E+009,-4.554033569137740E+000,-1.751097959173064E+002,-4.554033569137740E+000,-1.751097959173064E+002,-4.554033569137740E+000,-1.751097959173064E+002,-4.554033569137740E+000,-1.751097959173064E+002,
2.010000000000000E+009,-4.497161763194617E+000,-1.791946556158675E+002,-4.497161763194617E+000,-1.791946556158675E+002,-4.497161763194617E+000,-1.791946556158675E+002,-4.497161763194617E+000,-1.791946556158675E+002,
2.015000000000000E+009,-4.398895007243437E+000,1.768193738813850E+002,-4.398895007243437E+000,1.768193738813850E+002,-4.398895007243437E+000,1.768193738813850E+002,-4.398895007243437E+000,1.768193738813850E+002,
2.020000000000000E+009,-4.272657403091327E+000,1.729724714792428E+002,-4.272657403091327E+000,1.729724714792428E+002,-4.272657403091327E+000,1.729724714792428E+002,-4.272657403091327E+000,1.729724714792428E+002,
2.025000000000000E+009,-4.128860735193205E+000,1.694099538394355E+002,-4.128860735193205E+000,1.694099538394355E+002,-4.128860735193205E+000,1.694099538394355E+002,-4.128860735193205E+000,1.694099538394355E+002,
2.030000000000000E+009,-3.968182435518609E+000,1.661485215079911E+002,-3.968182435518609E+000,1.661485215079911E+002,-3.968182435518609E+000,1.661485215079911E+002,-3.968182435518609E+000,1.661485215079911E+002,
2.035000000000000E+009,-3.803025212207378E+000,1.632407039434954E+002,-3.803025212207378E+000,1.632407039434954E+002,-3.803025212207378E+000,1.632407039434954E+002,-3.803025212207378E+000,1.632407039434954E+002,
2.040000000000000E+009,-3.641158478522898E+000,1.606846828381300E+002,-3.641158478522898E+000,1.606846828381300E+002,-3.641158478522898E+000,1.606846828381300E+002,-3.641158478522898E+000,1.606846828381300E+002,
2.045000000000000E+009,-3.485561832320977E+000,1.584804914004346E+002,-3.485561832320977E+000,1.584804914004346E+002,-3.485561832320977E+000,1.584804914004346E+002,-3.485561832320977E+000,1.584804914004346E+002,
2.050000000000000E+009,-3.342591234566944E+000,1.566329181095887E+002,-3.342591234566944E+000,1.566329181095887E+002,-3.342591234566944E+000,1.566329181095887E+002,-3.342591234566944E+000,1.566329181095887E+002,
2.055000000000000E+009,-3.215605094902648E+000,1.550722606859688E+002,-3.215605094902648E+000,1.550722606859688E+002,-3.215605094902648E+000,1.550722606859688E+002,-3.215605094902648E+000,1.550722606859688E+002,
2.060000000000000E+009,-3.106543919626540E+000,1.538026146723199E+002,-3.106543919626540E+000,1.538026146723199E+002,-3.106543919626540E+000,1.538026146723199E+002,-3.106543919626540E+000,1.538026146723199E+002,
2.065000000000000E+009,-3.019131262480082E+000,1.527689660529438E+002,-3.019131262480082E+000,1.527689660529438E+002,-3.019131262480082E+000,1.527689660529438E+002,-3.019131262480082E+000,1.527689660529438E+002,
2.070000000000000E+009,-2.944359230288328E+000,1.519594182221673E+002,-2.944359230288328E+000,1.519594182221673E+002,-2.944359230288328E+000,1.519594182221673E+002,-2.944359230288328E+000,1.519594182221673E+002,
2.075000000000000E+009,-2.895685059445039E+000,1.512532593413999E+002,-2.895685059445039E+000,1.512532593413999E+002,-2.895685059445039E+000,1.512532593413999E+002,-2.895685059445039E+000,1.512532593413999E+002,
2.080000000000000E+009,-2.863882797353059E+000,1.506936471441026E+002,-2.863882797353059E+000,1.506936471441026E+002,-2.863882797353059E+000,1.506936471441026E+002,-2.863882797353059E+000,1.506936471441026E+002,
2.085000000000000E+009,-2.849836552620506E+000,1.501975510524764E+002,-2.849836552620506E+000,1.501975510524764E+002,-2.849836552620506E+000,1.501975510524764E+002,-2.849836552620506E+000,1.501975510524764E+002,
2.090000000000000E+009,-2.855396349205926E+000,1.497050662801834E+002,-2.855396349205926E+000,1.497050662801834E+002,-2.855396349205926E+000,1.497050662801834E+002,-2.855396349205926E+000,1.497050662801834E+002,
2.095000000000000E+009,-2.876217478977486E+000,1.491940901073274E+002,-2.876217478977486E+000,1.491940901073274E+002,-2.876217478977486E+000,1.491940901073274E+002,-2.876217478977486E+000,1.491940901073274E+002,
2.100000000000000E+009,-2.907331756570802E+000,1.485760315933407E+002,-2.907331756570802E+000,1.485760315933407E+002,-2.907331756570802E+000,1.485760315933407E+002,-2.907331756570802E+000,1.485760315933407E+002,
2.105000000000000E+009,-2.953840238278390E+000,1.478184691847563E+002,-2.953840238278390E+000,1.478184691847563E+002,-2.953840238278390E+000,1.478184691847563E+002,-2.953840238278390E+000,1.478184691847563E+002,
2.110000000000000E+009,-3.016000519824563E+000,1.468641393172466E+002,-3.016000519824563E+000,1.468641393172466E+002,-3.016000519824563E+000,1.468641393172466E+002,-3.016000519824563E+000,1.468641393172466E+002,
2.115000000000000E+009,-3.083882711756397E+000,1.456989999097096E+002,-3.083882711756397E+000,1.456989999097096E+002,-3.083882711756397E+000,1.456989999097096E+002,-3.083882711756397E+000,1.456989999097096E+002,
2.120000000000000E+009,-3.158121963697967E+000,1.442358502105653E+002,-3.158121963697967E+000,1.442358502105653E+002,-3.158121963697967E+000,1.442358502105653E+002,-3.158121963697967E+000,1.442358502105653E+002,
2.125000000000000E+009,-3.240896784049712E+000,1.424421203871077E+002,-3.240896784049712E+000,1.424421203871077E+002,-3.240896784049712E+000,1.424421203871077E+002,-3.240896784049712E+000,1.424421203871077E+002,
2.130000000000000E+009,-3.317239436003820E+000,1.403210934737072E+002,-3.317239436003820E+000,1.403210934737072E+002,-3.317239436003820E+000,1.403210934737072E+002,-3.317239436003820E+000,1.403210934737072E+002,
2.135000000000000E+009,-3.396980711673986E+000,1.378222452216268E+002,-3.396980711673986E+000,1.378222452216268E+002,-3.396980711673986E+000,1.378222452216268E+002,-3.396980711673986E+000,1.378222452216268E+002,
2.140000000000000E+009,-3.470578280115473E+000,1.349746277310881E+002,-3.470578280115473E+000,1.349746277310881E+002,-3.470578280115473E+000,1.349746277310881E+002,-3.470578280115473E+000,1.349746277310881E+002,
2.145000000000000E+009,-3.526411574407280E+000,1.318263098198999E+002,-3.526411574407280E+000,1.318263098198999E+002,-3.526411574407280E+000,1.318263098198999E+002,-3.526411574407280E+000,1.318263098198999E+002,
2.150000000000000E+009,-3.564893770286539E+000,1.284062269526123E+002,-3.564893770286539E+000,1.284062269526123E+002,-3.564893770286539E+000,1.284062269526123E+002,-3.564893770286539E+000,1.284062269526123E+002,
2.155000000000000E+009,-3.577126994986800E+000,1.247704906968865E+002,-3.577126994986800E+000,1.247704906968865E+002,-3.577126994986800E+000,1.247704906968865E+002,-3.577126994986800E+000,1.247704906968865E+002,
2.160000000000000E+009,-3.565564365500693E+000,1.210493084161160E+002,-3.565564365500693E+000,1.210493084161160E+002,-3.565564365500693E+000,1.210493084161160E+002,-3.565564365500693E+000,1.210493084161160E+002,
2.165000000000000E+009,-3.522575004782523E+000,1.172802062616683E+002,-3.522575004782523E+000,1.172802062616683E+002,-3.522575004782523E+000,1.172802062616683E+002,-3.522575004782523E+000,1.172802062616683E+002,
2.170000000000000E+009,-3.456316290216428E+000,1.135914558611954E+002,-3.456316290216428E+000,1.135914558611954E+002,-3.456316290216428E+000,1.135914558611954E+002,-3.456316290216428E+000,1.135914558611954E+002,
2.175000000000000E+009,-3.365056286715205E+000,1.100930534034426E+002,-3.365056286715205E+000,1.100930534034426E+002,-3.365056286715205E+000,1.100930534034426E+002,-3.365056286715205E+000,1.100930534034426E+002,
2.180000000000000E+009,-3.259034452591965E+000,1.068363324679588E+002,-3.259034452591965E+000,1.068363324679588E+002,-3.259034452591965E+000,1.068363324679588E+002,-3.259034452591965E+000,1.068363324679588E+002,
2.185000000000000E+009,-3.138615434328651E+000,1.038744795770982E+002,-3.138615434328651E+000,1.038744795770982E+002,-3.138615434328651E+000,1.038744795770982E+002,-3.138615434328651E+000,1.038744795770982E+002,
2.190000000000000E+009,-3.016787190474263E+000,1.012352173528399E+002,-3.016787190474263E+000,1.012352173528399E+002,-3.016787190474263E+000,1.012352173528399E+002,-3.016787190474263E+000,1.012352173528399E+002,
2.195000000000000E+009,-2.898317453270187E+000,9.896587336951181E+001,-2.898317453270187E+000,9.896587336951181E+001,-2.898317453270187E+000,9.896587336951181E+001,-2.898317453270187E+000,9.896587336951181E+001,
2.200000000000000E+009,-2.781361103047603E+000,9.708699899457486E+001,-2.781361103047603E+000,9.708699899457486E+001,-2.781361103047603E+000,9.708699899457486E+001,-2.781361103047603E+000,9.708699899457486E+001,
2.205000000000000E+009,-2.669323730251214E+000,9.552143187718313E+001,-2.669323730251214E+000,9.552143187718313E+001,-2.669323730251214E+000,9.552143187718313E+001,-2.669323730251214E+000,9.552143187718313E+001,
2.210000000000000E+009,-2.568272032488008E+000,9.424316373110527E+001,-2.568272032488008E+000,9.424316373110527E+001,-2.568272032488008E+000,9.424316373110527E+001,-2.568272032488008E+000,9.424316373110527E+001,
2.215000000000000E+009,-2.479028135739718E+000,9.322345838072039E+001,-2.479028135739718E+000,9.322345838072039E+001,-2.479028135739718E+000,9.322345838072039E+001,-2.479028135739718E+000,9.322345838072039E+001,
2.220000000000000E+009,-2.406427543394775E+000,9.243335323226594E+001,-2.406427543394775E+000,9.243335323226594E+001,-2.406427543394775E+000,9.243335323226594E+001,-2.406427543394775E+000,9.243335323226594E+001,
2.225000000000000E+009,-2.351232342514746E+000,9.178961234943911E+001,-2.351232342514746E+000,9.178961234943911E+001,-2.351232342514746E+000,9.178961234943911E+001,-2.351232342514746E+000,9.178961234943911E+001,
2.230000000000000E+009,-2.310706725357627E+000,9.126902227804315E+001,-2.310706725357627E+000,9.126902227804315E+001,-2.310706725357627E+000,9.126902227804315E+001,-2.310706725357627E+000,9.126902227804315E+001,
2.235000000000000E+009,-2.289951985520135E+000,9.085414644285508E+001,-2.289951985520135E+000,9.085414644285508E+001,-2.289951985520135E+000,9.085414644285508E+001,-2.289951985520135E+000,9.085414644285508E+001,
2.240000000000000E+009,-2.286000192148440E+000,9.045109328428626E+001,-2.286000192148440E+000,9.045109328428626E+001,-2.286000192148440E+000,9.045109328428626E+001,-2.286000192148440E+000,9.045109328428626E+001,
2.245000000000000E+009,-2.299723641069181E+000,9.004562366364534E+001,-2.299723641069181E+000,9.004562366364534E+001,-2.299723641069181E+000,9.004562366364534E+001,-2.299723641069181E+000,9.004562366364534E+001,
2.250000000000000E+009,-2.328347030298887E+000,8.956367181792450E+001,-2.328347030298887E+000,8.956367181792450E+001,-2.328347030298887E+000,8.956367181792450E+001,-2.328347030298887E+000,8.956367181792450E+001,
2.255000000000000E+009,-2.374774829438741E+000,8.894707390673301E+001,-2.374774829438741E+000,8.894707390673301E+001,-2.374774829438741E+000,8.894707390673301E+001,-2.374774829438741E+000,8.894707390673301E+001,
2.260000000000000E+009,-2.439357898253945E+000,8.819074938748199E+001,-2.439357898253945E+000,8.819074938748199E+001,-2.439357898253945E+000,8.819074938748199E+001,-2.439357898253945E+000,8.819074938748199E+001,
2.265000000000000E+009,-2.517713003500989E+000,8.718739870093663E+001,-2.517713003500989E+000,8.718739870093663E+001,-2.517713003500989E+000,8.718739870093663E+001,-2.517713003500989E+000,8.718739870093663E+001,
2.270000000000000E+009,-2.605834752482002E+000,8.589869258675699E+001,-2.605834752482002E+000,8.589869258675699E+001,-2.605834752482002E+000,8.589869258675699E+001,-2.605834752482002E+000,8.589869258675699E+001,
2.275000000000000E+009,-2.715230944706237E+000,8.428230099733787E+001,-2.715230944706237E+000,8.428230099733787E+001,-2.715230944706237E+000,8.428230099733787E+001,-2.715230944706237E+000,8.428230099733787E+001,
2.280000000000000E+009,-2.832511717621323E+000,8.232764519310433E+001,-2.832511717621323E+000,8.232764519310433E+001,-2.832511717621323E+000,8.232764519310433E+001,-2.832511717621323E+000,8.232764519310433E+001,
2.285000000000000E+009,-2.963012247511984E+000,7.997120091249943E+001,-2.963012247511984E+000,7.997120091249943E+001,-2.963012247511984E+000,7.997120091249943E+001,-2.963012247511984E+000,7.997120091249943E+001,
2.290000000000000E+009,-3.095510810476535E+000,7.725393574048222E+001,-3.095510810476535E+000,7.725393574048222E+001,-3.095510810476535E+000,7.725393574048222E+001,-3.095510810476535E+000,7.725393574048222E+001,
2.295000000000000E+009,-3.218695991993624E+000,7.412569336838780E+001,-3.218695991993624E+000,7.412569336838780E+001,-3.218695991993624E+000,7.412569336838780E+001,-3.218695991993624E+000,7.412569336838780E+001,
2.300000000000000E+009,-3.325208839319214E+000,7.061060450440006E+001,-3.325208839319214E+000,7.061060450440006E+001,-3.325208839319214E+000,7.061060450440006E+001,-3.325208839319214E+000,7.061060450440006E+001,
2.305000000000000E+009,-3.412278166365740E+000,6.673782339383924E+001,-3.412278166365740E+000,6.673782339383924E+001,-3.412278166365740E+000,6.673782339383924E+001,-3.412278166365740E+000,6.673782339383924E+001,
2.310000000000000E+009,-3.473042021096309E+000,6.254153898911738E+001,-3.473042021096309E+000,6.254153898911738E+001,-3.473042021096309E+000,6.254153898911738E+001,-3.473042021096309E+000,6.254153898911738E+001,
2.315000000000000E+009,-3.501042760013603E+000,5.821353615098936E+001,-3.501042760013603E+000,5.821353615098936E+001,-3.501042760013603E+000,5.821353615098936E+001,-3.501042760013603E+000,5.821353615098936E+001,
2.320000000000000E+009,-3.492321965305038E+000,5.379664732831766E+001,-3.492321965305038E+000,5.379664732831766E+001,-3.492321965305038E+000,5.379664732831766E+001,-3.492321965305038E+000,5.379664732831766E+001,
2.325000000000000E+009,-3.447891402725996E+000,4.942128587748133E+001,-3.447891402725996E+000,4.942128587748133E+001,-3.447891402725996E+000,4.942128587748133E+001,-3.447891402725996E+000,4.942128587748133E+001,
2.330000000000000E+009,-3.373310025878274E+000,4.521093967574124E+001,-3.373310025878274E+000,4.521093967574124E+001,-3.373310025878274E+000,4.521093967574124E+001,-3.373310025878274E+000,4.521093967574124E+001,
2.335000000000000E+009,-3.269890091763152E+000,4.128320354150186E+001,-3.269890091763152E+000,4.128320354150186E+001,-3.269890091763152E+000,4.128320354150186E+001,-3.269890091763152E+000,4.128320354150186E+001,
2.340000000000000E+009,-3.148508643459971E+000,3.767905939181595E+001,-3.148508643459971E+000,3.767905939181595E+001,-3.148508643459971E+000,3.767905939181595E+001,-3.148508643459971E+000,3.767905939181595E+001,
2.345000000000000E+009,-3.013779408346762E+000,3.450716207907881E+001,-3.013779408346762E+000,3.450716207907881E+001,-3.013779408346762E+000,3.450716207907881E+001,-3.013779408346762E+000,3.450716207907881E+001,
2.350000000000000E+009,-2.878115172573851E+000,3.170977378394600E+001,-2.878115172573851E+000,3.170977378394600E+001,-2.878115172573851E+000,3.170977378394600E+001,-2.878115172573851E+000,3.170977378394600E+001,
2.355000000000000E+009,-2.746750151593667E+000,2.934814989042592E+001,-2.746750151593667E+000,2.934814989042592E+001,-2.746750151593667E+000,2.934814989042592E+001,-2.746750151593667E+000,2.934814989042592E+001,
2.360000000000000E+009,-2.625217985770232E+000,2.735584931285976E+001,-2.625217985770232E+000,2.735584931285976E+001,-2.625217985770232E+000,2.735584931285976E+001,-2.625217985770232E+000,2.735584931285976E+001,
2.365000000000000E+009,-2.517012262772774E+000,2.571711825035071E+001,-2.517012262772774E+000,2.571711825035071E+001,-2.517012262772774E+000,2.571711825035071E+001,-2.517012262772774E+000,2.571711825035071E+001,
2.370000000000000E+009,-2.423694307693022E+000,2.443368142924103E+001,-2.423694307693022E+000,2.443368142924103E+001,-2.423694307693022E+000,2.443368142924103E+001,-2.423694307693022E+000,2.443368142924103E+001,
2.375000000000000E+009,-2.348876690993561E+000,2.340486855630271E+001,-2.348876690993561E+000,2.340486855630271E+001,-2.348876690993561E+000,2.340486855630271E+001,-2.348876690993561E+000,2.340486855630271E+001,
2.380000000000000E+009,-2.291900712887963E+000,2.256778246947060E+001,-2.291900712887963E+000,2.256778246947060E+001,-2.291900712887963E+000,2.256778246947060E+001,-2.291900712887963E+000,2.256778246947060E+001,
2.385000000000000E+009,-2.253609426230300E+000,2.185549041739775E+001,-2.253609426230300E+000,2.185549041739775E+001,-2.253609426230300E+000,2.185549041739775E+001,-2.253609426230300E+000,2.185549041739775E+001,
2.390000000000000E+009,-2.236466370215035E+000,2.122735430109278E+001,-2.236466370215035E+000,2.122735430109278E+001,-2.236466370215035E+000,2.122735430109278E+001,-2.236466370215035E+000,2.122735430109278E+001,
2.395000000000000E+009,-2.245504368793041E+000,2.058263414236066E+001,-2.245504368793041E+000,2.058263414236066E+001,-2.245504368793041E+000,2.058263414236066E+001,-2.245504368793041E+000,2.058263414236066E+001,
2.400000000000000E+009,-2.271488772450186E+000,1.991840126844236E+001,-2.271488772450186E+000,1.991840126844236E+001,-2.271488772450186E+000,1.991840126844236E+001,-2.271488772450186E+000,1.991840126844236E+001,
2.405000000000000E+009,-2.321752579566947E+000,1.914449263282467E+001,-2.321752579566947E+000,1.914449263282467E+001,-2.321752579566947E+000,1.914449263282467E+001,-2.321752579566947E+000,1.914449263282467E+001,
2.410000000000000E+009,-2.385240751711029E+000,1.820681074501369E+001,-2.385240751711029E+000,1.820681074501369E+001,-2.385240751711029E+000,1.820681074501369E+001,-2.385240751711029E+000,1.820681074501369E+001,
