% Version 1.00
%
%freq[Hz],db:Trc1_S11,ang:Trc1_S11,db:Trc2_S11,ang:Trc2_S11,db:Trc3_S11,ang:Trc3_S11,db:Trc4_S11,ang:Trc4_S11,
1.950000000000000E+009,-4.912432545796137E+000,-8.665177503909314E+001,-4.912432545796137E+000,-8.665177503909314E+001,-4.912432545796137E+000,-8.665177503909314E+001,-4.912432545796137E+000,-8.665177503909314E+001,
1.955000000000000E+009,-4.991241255867846E+000,-8.660171939760311E+001,-4.991241255867846E+000,-8.660171939760311E+001,-4.991241255867846E+000,-8.660171939760311E+001,-4.991241255867846E+000,-8.660171939760311E+001,
1.960000000000000E+009,-5.104732278431954E+000,-8.649331126805240E+001,-5.104732278431954E+000,-8.649331126805240E+001,-5.104732278431954E+000,-8.649331126805240E+001,-5.104732278431954E+000,-8.649331126805240E+001,
1.965000000000000E+009,-5.250177361976082E+000,-8.637710970879181E+001,-5.250177361976082E+000,-8.637710970879181E+001,-5.250177361976082E+000,-8.637710970879181E+001,-5.250177361976082E+000,-8.637710970879181E+001,
1.970000000000000E+009,-5.429536403881906E+000,-8.627192903534292E+001,-5.429536403881906E+000,-8.627192903534292E+001,-5.429536403881906E+000,-8.627192903534292E+001,-5.429536403881906E+000,-8.627192903534292E+001,
1.975000000000000E+009,-5.635679819740736E+000,-8.619333156084640E+001,-5.635679819740736E+000,-8.619333156084640E+001,-5.635679819740736E+000,-8.619333156084640E+001,-5.635679819740736E+000,-8.619333156084640E+001,
1.980000000000000E+009,-5.879273869008656E+000,-8.632134640909895E+001,-5.879273869008656E+000,-8.632134640909895E+001,-5.879273869008656E+000,-8.632134640909895E+001,-5.879273869008656E+000,-8.632134640909895E+001,
1.985000000000000E+009,-6.165251623924191E+000,-8.658557861668396E+001,-6.165251623924191E+000,-8.658557861668396E+001,-6.165251623924191E+000,-8.658557861668396E+001,-6.165251623924191E+000,-8.658557861668396E+001,
1.990000000000000E+009,-6.481144456338509E+000,-8.705460178651507E+001,-6.481144456338509E+000,-8.705460178651507E+001,-6.481144456338509E+000,-8.705460178651507E+001,-6.481144456338509E+000,-8.705460178651507E+001,
1.995000000000000E+009,-6.843544666277976E+000,-8.772409233263667E+001,-6.843544666277976E+000,-8.772409233263667E+001,-6.843544666277976E+000,-8.772409233263667E+001,-6.843544666277976E+000,-8.772409233263667E+001,
2.000000000000000E+009,-7.238171051521067E+000,-8.853309779155461E+001,-7.238171051521067E+000,-8.853309779155461E+001,-7.238171051521067E+000,-8.853309779155461E+001,-7.238171051521067E+000,-8.853309779155461E+001,
2.005000000000000E+009,-7.655674901181820E+000,-8.956212081880771E+001,-7.655674901181820E+000,-8.956212081880771E+001,-7.655674901181820E+000,-8.956212081880771E+001,-7.655674901181820E+000,-8.956212081880771E+001,
2.010000000000000E+009,-8.065670803174998E+000,-9.088987026079347E+001,-8.065670803174998E+000,-9.088987026079347E+001,-8.065670803174998E+000,-9.088987026079347E+001,-8.065670803174998E+000,-9.088987026079347E+001,
2.015000000000000E+009,-8.465999354509366E+000,-9.259367807663973E+001,-8.465999354509366E+000,-9.259367807663973E+001,-8.465999354509366E+000,-9.259367807663973E+001,-8.465999354509366E+000,-9.259367807663973E+001,
2.020000000000000E+009,-8.847492445041640E+000,-9.469633889529314E+001,-8.847492445041640E+000,-9.469633889529314E+001,-8.847492445041640E+000,-9.469633889529314E+001,-8.847492445041640E+000,-9.469633889529314E+001,
2.025000000000000E+009,-9.188128512833091E+000,-9.716543060856664E+001,-9.188128512833091E+000,-9.716543060856664E+001,-9.188128512833091E+000,-9.716543060856664E+001,-9.188128512833091E+000,-9.716543060856664E+001,
2.030000000000000E+009,-9.461414078916869E+000,-1.000547331123654E+002,-9.461414078916869E+000,-1.000547331123654E+002,-9.461414078916869E+000,-1.000547331123654E+002,-9.461414078916869E+000,-1.000547331123654E+002,
2.035000000000000E+009,-9.655936424573721E+000,-1.033586400765698E+002,-9.655936424573721E+000,-1.033586400765698E+002,-9.655936424573721E+000,-1.033586400765698E+002,-9.655936424573721E+000,-1.033586400765698E+002,
2.040000000000000E+009,-9.766684593851393E+000,-1.069934860223384E+002,-9.766684593851393E+000,-1.069934860223384E+002,-9.766684593851393E+000,-1.069934860223384E+002,-9.766684593851393E+000,-1.069934860223384E+002,
2.045000000000000E+009,-9.789355599726843E+000,-1.107646949634413E+002,-9.789355599726843E+000,-1.107646949634413E+002,-9.789355599726843E+000,-1.107646949634413E+002,-9.789355599726843E+000,-1.107646949634413E+002,
2.050000000000000E+009,-9.749823882539156E+000,-1.145471236805209E+002,-9.749823882539156E+000,-1.145471236805209E+002,-9.749823882539156E+000,-1.145471236805209E+002,-9.749823882539156E+000,-1.145471236805209E+002,
2.055000000000000E+009,-9.644363156637821E+000,-1.179681156979984E+002,-9.644363156637821E+000,-1.179681156979984E+002,-9.644363156637821E+000,-1.179681156979984E+002,-9.644363156637821E+000,-1.179681156979984E+002,
2.060000000000000E+009,-9.452196315804835E+000,-1.208992748534135E+002,-9.452196315804835E+000,-1.208992748534135E+002,-9.452196315804835E+000,-1.208992748534135E+002,-9.452196315804835E+000,-1.208992748534135E+002,
2.065000000000000E+009,-9.187757022950926E+000,-1.234722598796956E+002,-9.187757022950926E+000,-1.234722598796956E+002,-9.187757022950926E+000,-1.234722598796956E+002,-9.187757022950926E+000,-1.234722598796956E+002,
2.070000000000000E+009,-8.885323627021771E+000,-1.257545745537028E+002,-8.885323627021771E+000,-1.257545745537028E+002,-8.885323627021771E+000,-1.257545745537028E+002,-8.885323627021771E+000,-1.257545745537028E+002,
2.075000000000000E+009,-8.584971544497773E+000,-1.276820740124379E+002,-8.584971544497773E+000,-1.276820740124379E+002,-8.584971544497773E+000,-1.276820740124379E+002,-8.584971544497773E+000,-1.276820740124379E+002,
2.080000000000000E+009,-8.293460539099501E+000,-1.291747420094955E+002,-8.293460539099501E+000,-1.291747420094955E+002,-8.293460539099501E+000,-1.291747420094955E+002,-8.293460539099501E+000,-1.291747420094955E+002,
2.085000000000000E+009,-8.031120065781872E+000,-1.302494771997635E+002,-8.031120065781872E+000,-1.302494771997635E+002,-8.031120065781872E+000,-1.302494771997635E+002,-8.031120065781872E+000,-1.302494771997635E+002,
2.090000000000000E+009,-7.788718218147922E+000,-1.308772948695706E+002,-7.788718218147922E+000,-1.308772948695706E+002,-7.788718218147922E+000,-1.308772948695706E+002,-7.788718218147922E+000,-1.308772948695706E+002,
2.095000000000000E+009,-7.561130254165247E+000,-1.311230733236828E+002,-7.561130254165247E+000,-1.311230733236828E+002,-7.561130254165247E+000,-1.311230733236828E+002,-7.561130254165247E+000,-1.311230733236828E+002,
2.100000000000000E+009,-7.348464112789347E+000,-1.312053245373779E+002,-7.348464112789347E+000,-1.312053245373779E+002,-7.348464112789347E+000,-1.312053245373779E+002,-7.348464112789347E+000,-1.312053245373779E+002,
2.105000000000000E+009,-7.181426443369083E+000,-1.312161825982101E+002,-7.181426443369083E+000,-1.312161825982101E+002,-7.181426443369083E+000,-1.312161825982101E+002,-7.181426443369083E+000,-1.312161825982101E+002,
2.110000000000000E+009,-7.073759716209847E+000,-1.310519640312118E+002,-7.073759716209847E+000,-1.310519640312118E+002,-7.073759716209847E+000,-1.310519640312118E+002,-7.073759716209847E+000,-1.310519640312118E+002,
2.115000000000000E+009,-7.021339614097919E+000,-1.306612234142957E+002,-7.021339614097919E+000,-1.306612234142957E+002,-7.021339614097919E+000,-1.306612234142957E+002,-7.021339614097919E+000,-1.306612234142957E+002,
2.120000000000000E+009,-7.008880394754513E+000,-1.300638677759647E+002,-7.008880394754513E+000,-1.300638677759647E+002,-7.008880394754513E+000,-1.300638677759647E+002,-7.008880394754513E+000,-1.300638677759647E+002,
2.125000000000000E+009,-7.040431042827983E+000,-1.293296762348145E+002,-7.040431042827983E+000,-1.293296762348145E+002,-7.040431042827983E+000,-1.293296762348145E+002,-7.040431042827983E+000,-1.293296762348145E+002,
2.130000000000000E+009,-7.099709630741683E+000,-1.285091756572244E+002,-7.099709630741683E+000,-1.285091756572244E+002,-7.099709630741683E+000,-1.285091756572244E+002,-7.099709630741683E+000,-1.285091756572244E+002,
2.135000000000000E+009,-7.204624220200207E+000,-1.277336978281649E+002,-7.204624220200207E+000,-1.277336978281649E+002,-7.204624220200207E+000,-1.277336978281649E+002,-7.204624220200207E+000,-1.277336978281649E+002,
2.140000000000000E+009,-7.359304873348570E+000,-1.269470312222735E+002,-7.359304873348570E+000,-1.269470312222735E+002,-7.359304873348570E+000,-1.269470312222735E+002,-7.359304873348570E+000,-1.269470312222735E+002,
2.145000000000000E+009,-7.549003668121608E+000,-1.260799145132708E+002,-7.549003668121608E+000,-1.260799145132708E+002,-7.549003668121608E+000,-1.260799145132708E+002,-7.549003668121608E+000,-1.260799145132708E+002,
2.150000000000000E+009,-7.758218059171641E+000,-1.251756197935239E+002,-7.758218059171641E+000,-1.251756197935239E+002,-7.758218059171641E+000,-1.251756197935239E+002,-7.758218059171641E+000,-1.251756197935239E+002,
2.155000000000000E+009,-7.957580370769774E+000,-1.245284667949955E+002,-7.957580370769774E+000,-1.245284667949955E+002,-7.957580370769774E+000,-1.245284667949955E+002,-7.957580370769774E+000,-1.245284667949955E+002,
2.160000000000000E+009,-8.193105088071455E+000,-1.242423910062718E+002,-8.193105088071455E+000,-1.242423910062718E+002,-8.193105088071455E+000,-1.242423910062718E+002,-8.193105088071455E+000,-1.242423910062718E+002,
2.165000000000000E+009,-8.447095506712721E+000,-1.242952168149321E+002,-8.447095506712721E+000,-1.242952168149321E+002,-8.447095506712721E+000,-1.242952168149321E+002,-8.447095506712721E+000,-1.242952168149321E+002,
2.170000000000000E+009,-8.729709240463587E+000,-1.248561189132281E+002,-8.729709240463587E+000,-1.248561189132281E+002,-8.729709240463587E+000,-1.248561189132281E+002,-8.729709240463587E+000,-1.248561189132281E+002,
2.175000000000000E+009,-9.041112093572362E+000,-1.258752258419114E+002,-9.041112093572362E+000,-1.258752258419114E+002,-9.041112093572362E+000,-1.258752258419114E+002,-9.041112093572362E+000,-1.258752258419114E+002,
2.180000000000000E+009,-9.372697872652033E+000,-1.274031503721505E+002,-9.372697872652033E+000,-1.274031503721505E+002,-9.372697872652033E+000,-1.274031503721505E+002,-9.372697872652033E+000,-1.274031503721505E+002,
2.185000000000000E+009,-9.693245653223750E+000,-1.292949374985536E+002,-9.693245653223750E+000,-1.292949374985536E+002,-9.693245653223750E+000,-1.292949374985536E+002,-9.693245653223750E+000,-1.292949374985536E+002,
2.190000000000000E+009,-9.970903229131695E+000,-1.318854326778409E+002,-9.970903229131695E+000,-1.318854326778409E+002,-9.970903229131695E+000,-1.318854326778409E+002,-9.970903229131695E+000,-1.318854326778409E+002,
2.195000000000000E+009,-1.023161417342479E+001,-1.350376079562108E+002,-1.023161417342479E+001,-1.350376079562108E+002,-1.023161417342479E+001,-1.350376079562108E+002,-1.023161417342479E+001,-1.350376079562108E+002,
2.200000000000000E+009,-1.042568285875268E+001,-1.385091549693772E+002,-1.042568285875268E+001,-1.385091549693772E+002,-1.042568285875268E+001,-1.385091549693772E+002,-1.042568285875268E+001,-1.385091549693772E+002,
2.205000000000000E+009,-1.049362829057513E+001,-1.423634978906814E+002,-1.049362829057513E+001,-1.423634978906814E+002,-1.049362829057513E+001,-1.423634978906814E+002,-1.049362829057513E+001,-1.423634978906814E+002,
2.210000000000000E+009,-1.046453605956161E+001,-1.466456278384235E+002,-1.046453605956161E+001,-1.466456278384235E+002,-1.046453605956161E+001,-1.466456278384235E+002,-1.046453605956161E+001,-1.466456278384235E+002,
2.215000000000000E+009,-1.035317912243427E+001,-1.510073019827989E+002,-1.035317912243427E+001,-1.510073019827989E+002,-1.035317912243427E+001,-1.510073019827989E+002,-1.035317912243427E+001,-1.510073019827989E+002,
2.220000000000000E+009,-1.016556315277564E+001,-1.550958059690371E+002,-1.016556315277564E+001,-1.550958059690371E+002,-1.016556315277564E+001,-1.550958059690371E+002,-1.016556315277564E+001,-1.550958059690371E+002,
2.225000000000000E+009,-9.890065146585410E+000,-1.587495600598491E+002,-9.890065146585410E+000,-1.587495600598491E+002,-9.890065146585410E+000,-1.587495600598491E+002,-9.890065146585410E+000,-1.587495600598491E+002,
2.230000000000000E+009,-9.548720309102848E+000,-1.620468693068554E+002,-9.548720309102848E+000,-1.620468693068554E+002,-9.548720309102848E+000,-1.620468693068554E+002,-9.548720309102848E+000,-1.620468693068554E+002,
2.235000000000000E+009,-9.190419768723148E+000,-1.648506486266696E+002,-9.190419768723148E+000,-1.648506486266696E+002,-9.190419768723148E+000,-1.648506486266696E+002,-9.190419768723148E+000,-1.648506486266696E+002,
2.240000000000000E+009,-8.816027239262310E+000,-1.670750928185727E+002,-8.816027239262310E+000,-1.670750928185727E+002,-8.816027239262310E+000,-1.670750928185727E+002,-8.816027239262310E+000,-1.670750928185727E+002,
2.245000000000000E+009,-8.448921142125366E+000,-1.688889682596982E+002,-8.448921142125366E+000,-1.688889682596982E+002,-8.448921142125366E+000,-1.688889682596982E+002,-8.448921142125366E+000,-1.688889682596982E+002,
2.250000000000000E+009,-8.127492036281875E+000,-1.702412897968188E+002,-8.127492036281875E+000,-1.702412897968188E+002,-8.127492036281875E+000,-1.702412897968188E+002,-8.127492036281875E+000,-1.702412897968188E+002,
2.255000000000000E+009,-7.821136709203632E+000,-1.709651428238045E+002,-7.821136709203632E+000,-1.709651428238045E+002,-7.821136709203632E+000,-1.709651428238045E+002,-7.821136709203632E+000,-1.709651428238045E+002,
2.260000000000000E+009,-7.538944626197635E+000,-1.713420481189108E+002,-7.538944626197635E+000,-1.713420481189108E+002,-7.538944626197635E+000,-1.713420481189108E+002,-7.538944626197635E+000,-1.713420481189108E+002,
2.265000000000000E+009,-7.287019259972338E+000,-1.713381401366831E+002,-7.287019259972338E+000,-1.713381401366831E+002,-7.287019259972338E+000,-1.713381401366831E+002,-7.287019259972338E+000,-1.713381401366831E+002,
2.270000000000000E+009,-7.053820969983463E+000,-1.711906466397700E+002,-7.053820969983463E+000,-1.711906466397700E+002,-7.053820969983463E+000,-1.711906466397700E+002,-7.053820969983463E+000,-1.711906466397700E+002,
2.275000000000000E+009,-6.866482267225414E+000,-1.709757602649489E+002,-6.866482267225414E+000,-1.709757602649489E+002,-6.866482267225414E+000,-1.709757602649489E+002,-6.866482267225414E+000,-1.709757602649489E+002,
2.280000000000000E+009,-6.753035756827859E+000,-1.705645841431611E+002,-6.753035756827859E+000,-1.705645841431611E+002,-6.753035756827859E+000,-1.705645841431611E+002,-6.753035756827859E+000,-1.705645841431611E+002,
2.285000000000000E+009,-6.689625319662472E+000,-1.699046360919558E+002,-6.689625319662472E+000,-1.699046360919558E+002,-6.689625319662472E+000,-1.699046360919558E+002,-6.689625319662472E+000,-1.699046360919558E+002,
2.290000000000000E+009,-6.661855117893130E+000,-1.689846524634389E+002,-6.661855117893130E+000,-1.689846524634389E+002,-6.661855117893130E+000,-1.689846524634389E+002,-6.661855117893130E+000,-1.689846524634389E+002,
2.295000000000000E+009,-6.664459898074227E+000,-1.679712611495081E+002,-6.664459898074227E+000,-1.679712611495081E+002,-6.664459898074227E+000,-1.679712611495081E+002,-6.664459898074227E+000,-1.679712611495081E+002,
2.300000000000000E+009,-6.677235983026563E+000,-1.668567973094229E+002,-6.677235983026563E+000,-1.668567973094229E+002,-6.677235983026563E+000,-1.668567973094229E+002,-6.677235983026563E+000,-1.668567973094229E+002,
2.305000000000000E+009,-6.704259345385410E+000,-1.659371026399612E+002,-6.704259345385410E+000,-1.659371026399612E+002,-6.704259345385410E+000,-1.659371026399612E+002,-6.704259345385410E+000,-1.659371026399612E+002,
2.310000000000000E+009,-6.776818790940355E+000,-1.653072544093100E+002,-6.776818790940355E+000,-1.653072544093100E+002,-6.776818790940355E+000,-1.653072544093100E+002,-6.776818790940355E+000,-1.653072544093100E+002,
2.315000000000000E+009,-6.926239682110198E+000,-1.648913929246776E+002,-6.926239682110198E+000,-1.648913929246776E+002,-6.926239682110198E+000,-1.648913929246776E+002,-6.926239682110198E+000,-1.648913929246776E+002,
2.320000000000000E+009,-7.142923158232848E+000,-1.643857871645259E+002,-7.142923158232848E+000,-1.643857871645259E+002,-7.142923158232848E+000,-1.643857871645259E+002,-7.142923158232848E+000,-1.643857871645259E+002,
2.325000000000000E+009,-7.368922193328176E+000,-1.639583852764402E+002,-7.368922193328176E+000,-1.639583852764402E+002,-7.368922193328176E+000,-1.639583852764402E+002,-7.368922193328176E+000,-1.639583852764402E+002,
2.330000000000000E+009,-7.611035531780586E+000,-1.638839080757416E+002,-7.611035531780586E+000,-1.638839080757416E+002,-7.611035531780586E+000,-1.638839080757416E+002,-7.611035531780586E+000,-1.638839080757416E+002,
2.335000000000000E+009,-7.887290281940975E+000,-1.642027972740558E+002,-7.887290281940975E+000,-1.642027972740558E+002,-7.887290281940975E+000,-1.642027972740558E+002,-7.887290281940975E+000,-1.642027972740558E+002,
2.340000000000000E+009,-8.193820910868690E+000,-1.650528848729631E+002,-8.193820910868690E+000,-1.650528848729631E+002,-8.193820910868690E+000,-1.650528848729631E+002,-8.193820910868690E+000,-1.650528848729631E+002,
2.345000000000000E+009,-8.545540089932862E+000,-1.665384771935677E+002,-8.545540089932862E+000,-1.665384771935677E+002,-8.545540089932862E+000,-1.665384771935677E+002,-8.545540089932862E+000,-1.665384771935677E+002,
2.350000000000000E+009,-8.975467397450929E+000,-1.685594403210697E+002,-8.975467397450929E+000,-1.685594403210697E+002,-8.975467397450929E+000,-1.685594403210697E+002,-8.975467397450929E+000,-1.685594403210697E+002,
2.355000000000000E+009,-9.443208693444053E+000,-1.706904867331930E+002,-9.443208693444053E+000,-1.706904867331930E+002,-9.443208693444053E+000,-1.706904867331930E+002,-9.443208693444053E+000,-1.706904867331930E+002,
2.360000000000000E+009,-9.858606825708588E+000,-1.731950559289715E+002,-9.858606825708588E+000,-1.731950559289715E+002,-9.858606825708588E+000,-1.731950559289715E+002,-9.858606825708588E+000,-1.731950559289715E+002,
2.365000000000000E+009,-1.021391514142973E+001,-1.763164132053151E+002,-1.021391514142973E+001,-1.763164132053151E+002,-1.021391514142973E+001,-1.763164132053151E+002,-1.021391514142973E+001,-1.763164132053151E+002,
2.370000000000000E+009,-1.049418168463346E+001,1.799312537396172E+002,-1.049418168463346E+001,1.799312537396172E+002,-1.049418168463346E+001,1.799312537396172E+002,-1.049418168463346E+001,1.799312537396172E+002,
2.375000000000000E+009,-1.070418750700828E+001,1.756176014249841E+002,-1.070418750700828E+001,1.756176014249841E+002,-1.070418750700828E+001,1.756176014249841E+002,-1.070418750700828E+001,1.756176014249841E+002,
2.380000000000000E+009,-1.083228353095585E+001,1.707919203093484E+002,-1.083228353095585E+001,1.707919203093484E+002,-1.083228353095585E+001,1.707919203093484E+002,-1.083228353095585E+001,1.707919203093484E+002,
2.385000000000000E+009,-1.093965172637998E+001,1.659324540748364E+002,-1.093965172637998E+001,1.659324540748364E+002,-1.093965172637998E+001,1.659324540748364E+002,-1.093965172637998E+001,1.659324540748364E+002,
2.390000000000000E+009,-1.098453008958384E+001,1.618601779474849E+002,-1.098453008958384E+001,1.618601779474849E+002,-1.098453008958384E+001,1.618601779474849E+002,-1.098453008958384E+001,1.618601779474849E+002,
2.395000000000000E+009,-1.089186880594860E+001,1.585988663130025E+002,-1.089186880594860E+001,1.585988663130025E+002,-1.089186880594860E+001,1.585988663130025E+002,-1.089186880594860E+001,1.585988663130025E+002,
2.400000000000000E+009,-1.067240852731962E+001,1.557912721977722E+002,-1.067240852731962E+001,1.557912721977722E+002,-1.067240852731962E+001,1.557912721977722E+002,-1.067240852731962E+001,1.557912721977722E+002,
