Frequency in GHz,dB(sub-3\s3_3)
2,-2.80106
2.00167,-2.818
2.00333,-2.83504
2.005,-2.85217
2.00667,-2.8694
2.00833,-2.88673
2.01,-2.90415
2.01167,-2.92168
2.01333,-2.9393
2.015,-2.95702
2.01667,-2.97485
2.01833,-2.99277
2.02,-3.0108
2.02167,-3.02893
2.02333,-3.04716
2.025,-3.06549
2.02667,-3.08392
2.02833,-3.10246
2.03,-3.1211
2.03167,-3.13985
2.03333,-3.1587
2.035,-3.17766
2.03667,-3.19672
2.03833,-3.21589
2.04,-3.23517
2.04167,-3.25455
2.04333,-3.27405
2.045,-3.29365
2.04667,-3.31335
2.04833,-3.33317
2.05,-3.3531
2.05167,-3.37314
2.05333,-3.39328
2.055,-3.41354
2.05667,-3.43391
2.05833,-3.45439
2.06,-3.47499
2.06167,-3.4957
2.06333,-3.51652
2.065,-3.53745
2.06667,-3.5585
2.06833,-3.57967
2.07,-3.60094
2.07167,-3.62234
2.07333,-3.64385
2.075,-3.66548
2.07667,-3.68722
2.07833,-3.70909
2.08,-3.73107
2.08167,-3.75317
2.08333,-3.77538
2.085,-3.79772
2.08667,-3.82018
2.08833,-3.84276
2.09,-3.86545
2.09167,-3.88827
2.09333,-3.91122
2.095,-3.93428
2.09667,-3.95747
2.09833,-3.98077
2.1,-4.00421
2.10167,-4.02776
2.10333,-4.05145
2.105,-4.07525
2.10667,-4.09918
2.10833,-4.12324
2.11,-4.14742
2.11167,-4.17173
2.11333,-4.19617
2.115,-4.22073
2.11667,-4.24543
2.11833,-4.27025
2.12,-4.29519
2.12167,-4.32027
2.12333,-4.34548
2.125,-4.37082
2.12667,-4.39629
2.12833,-4.42188
2.13,-4.44761
2.13167,-4.47347
2.13333,-4.49947
2.135,-4.52559
2.13667,-4.55185
2.13833,-4.57824
2.14,-4.60477
2.14167,-4.63143
2.14333,-4.65822
2.145,-4.68514
2.14667,-4.71221
2.14833,-4.7394
2.15,-4.76674
2.15167,-4.79421
2.15333,-4.82181
2.155,-4.84955
2.15667,-4.87743
2.15833,-4.90545
2.16,-4.9336
2.16167,-4.96189
2.16333,-4.99032
2.165,-5.01889
2.16667,-5.04759
2.16833,-5.07644
2.17,-5.10543
2.17167,-5.13455
2.17333,-5.16381
2.175,-5.19322
2.17667,-5.22276
2.17833,-5.25245
2.18,-5.28228
2.18167,-5.31224
2.18333,-5.34235
2.185,-5.3726
2.18667,-5.40299
2.18833,-5.43352
2.19,-5.4642
2.19167,-5.49502
2.19333,-5.52597
2.195,-5.55708
2.19667,-5.58832
2.19833,-5.61971
2.2,-5.65124
2.20167,-5.68291
2.20333,-5.71472
2.205,-5.74668
2.20667,-5.77878
2.20833,-5.81102
2.21,-5.84341
2.21167,-5.87594
2.21333,-5.90861
2.215,-5.94143
2.21667,-5.97438
2.21833,-6.00748
2.22,-6.04073
2.22167,-6.07411
2.22333,-6.10764
2.225,-6.14131
2.22667,-6.17513
2.22833,-6.20908
2.23,-6.24318
2.23167,-6.27742
2.23333,-6.3118
2.235,-6.34632
2.23667,-6.38099
2.23833,-6.41579
2.24,-6.45074
2.24167,-6.48582
2.24333,-6.52104
2.245,-6.55641
2.24667,-6.59191
2.24833,-6.62755
2.25,-6.66333
2.25167,-6.69925
2.25333,-6.7353
2.255,-6.77149
2.25667,-6.80782
2.25833,-6.84428
2.26,-6.88088
2.26167,-6.91761
2.26333,-6.95447
2.265,-6.99147
2.26667,-7.02859
2.26833,-7.06585
2.27,-7.10324
2.27167,-7.14076
2.27333,-7.17841
2.275,-7.21618
2.27667,-7.25408
2.27833,-7.29211
2.28,-7.33026
2.28167,-7.36854
2.28333,-7.40693
2.285,-7.44545
2.28667,-7.48409
2.28833,-7.52285
2.29,-7.56172
2.29167,-7.60071
2.29333,-7.63982
2.295,-7.67903
2.29667,-7.71836
2.29833,-7.7578
2.3,-7.79735
2.30167,-7.837
2.30333,-7.87676
2.305,-7.91662
2.30667,-7.95658
2.30833,-7.99664
2.31,-8.0368
2.31167,-8.07706
2.31333,-8.11741
2.315,-8.15785
2.31667,-8.19837
2.31833,-8.23899
2.32,-8.27969
2.32167,-8.32047
2.32333,-8.36133
2.325,-8.40226
2.32667,-8.44327
2.32833,-8.48435
2.33,-8.5255
2.33167,-8.56672
2.33333,-8.608
2.335,-8.64933
2.33667,-8.69073
2.33833,-8.73218
2.34,-8.77367
2.34167,-8.81522
2.34333,-8.8568
2.345,-8.89843
2.34667,-8.94009
2.34833,-8.98178
2.35,-9.02351
2.35167,-9.06525
2.35333,-9.10702
2.355,-9.1488
2.35667,-9.1906
2.35833,-9.2324
2.36,-9.2742
2.36167,-9.31601
2.36333,-9.3578
2.365,-9.39959
2.36667,-9.44136
2.36833,-9.48311
2.37,-9.52483
2.37167,-9.56652
2.37333,-9.60818
2.375,-9.64979
2.37667,-9.69136
2.37833,-9.73287
2.38,-9.77433
2.38167,-9.81572
2.38333,-9.85703
2.385,-9.89828
2.38667,-9.93943
2.38833,-9.9805
2.39,-10.0215
2.39167,-10.0623
2.39333,-10.1031
2.395,-10.1438
2.39667,-10.1843
2.39833,-10.2247
2.4,-10.2649
2.40167,-10.305
2.40333,-10.345
2.405,-10.3848
2.40667,-10.4244
2.40833,-10.4639
2.41,-10.5032
2.41167,-10.5422
2.41333,-10.5811
2.415,-10.6198
2.41667,-10.6583
2.41833,-10.6965
2.42,-10.7345
2.42167,-10.7723
2.42333,-10.8098
2.425,-10.8471
2.42667,-10.8841
2.42833,-10.9208
2.43,-10.9572
2.43167,-10.9934
2.43333,-11.0292
2.435,-11.0648
2.43667,-11.1
2.43833,-11.1349
2.44,-11.1694
2.44167,-11.2036
2.44333,-11.2374
2.445,-11.2709
2.44667,-11.304
2.44833,-11.3367
2.45,-11.3691
2.45167,-11.401
2.45333,-11.4325
2.455,-11.4636
2.45667,-11.4943
2.45833,-11.5245
2.46,-11.5542
2.46167,-11.5836
2.46333,-11.6124
2.465,-11.6408
2.46667,-11.6687
2.46833,-11.6961
2.47,-11.723
2.47167,-11.7494
2.47333,-11.7752
2.475,-11.8006
2.47667,-11.8254
2.47833,-11.8497
2.48,-11.8734
2.48167,-11.8966
2.48333,-11.9192
2.485,-11.9412
2.48667,-11.9627
2.48833,-11.9836
2.49,-12.0039
2.49167,-12.0235
2.49333,-12.0426
2.495,-12.0611
2.49667,-12.079
2.49833,-12.0963
2.5,-12.1129
2.50167,-12.1289
2.50333,-12.1443
2.505,-12.159
2.50667,-12.1731
2.50833,-12.1866
2.51,-12.1994
2.51167,-12.2115
2.51333,-12.2231
2.515,-12.2339
2.51667,-12.2441
2.51833,-12.2537
2.52,-12.2626
2.52167,-12.2708
2.52333,-12.2784
2.525,-12.2853
2.52667,-12.2916
2.52833,-12.2972
2.53,-12.3021
2.53167,-12.3064
2.53333,-12.3101
2.535,-12.3131
2.53667,-12.3154
2.53833,-12.3171
2.54,-12.3182
2.54167,-12.3186
2.54333,-12.3183
2.545,-12.3175
2.54667,-12.316
2.54833,-12.3139
2.55,-12.3111
2.55167,-12.3078
2.55333,-12.3038
2.555,-12.2992
2.55667,-12.2941
2.55833,-12.2883
2.56,-12.282
2.56167,-12.275
2.56333,-12.2675
2.565,-12.2594
2.56667,-12.2508
2.56833,-12.2416
2.57,-12.2318
2.57167,-12.2216
2.57333,-12.2107
2.575,-12.1994
2.57667,-12.1875
2.57833,-12.1752
2.58,-12.1623
2.58167,-12.1489
2.58333,-12.1351
2.585,-12.1208
2.58667,-12.106
2.58833,-12.0908
2.59,-12.0751
2.59167,-12.0589
2.59333,-12.0424
2.595,-12.0254
2.59667,-12.008
2.59833,-11.9901
2.6,-11.9719
2.60167,-11.9533
2.60333,-11.9343
2.605,-11.915
2.60667,-11.8953
2.60833,-11.8752
2.61,-11.8548
2.61167,-11.8341
2.61333,-11.813
2.615,-11.7916
2.61667,-11.7699
2.61833,-11.7479
2.62,-11.7256
2.62167,-11.703
2.62333,-11.6801
2.625,-11.657
2.62667,-11.6336
2.62833,-11.61
2.63,-11.5861
2.63167,-11.562
2.63333,-11.5376
2.635,-11.5131
2.63667,-11.4883
2.63833,-11.4633
2.64,-11.4381
2.64167,-11.4127
2.64333,-11.3872
2.645,-11.3614
2.64667,-11.3355
2.64833,-11.3094
2.65,-11.2832
2.65167,-11.2568
2.65333,-11.2303
2.655,-11.2037
2.65667,-11.1769
2.65833,-11.15
2.66,-11.1229
2.66167,-11.0958
2.66333,-11.0685
2.665,-11.0412
2.66667,-11.0138
2.66833,-10.9862
2.67,-10.9586
2.67167,-10.9309
2.67333,-10.9031
2.675,-10.8753
2.67667,-10.8474
2.67833,-10.8194
2.68,-10.7914
2.68167,-10.7633
2.68333,-10.7352
2.685,-10.707
2.68667,-10.6789
2.68833,-10.6506
2.69,-10.6224
2.69167,-10.5941
2.69333,-10.5658
2.695,-10.5375
2.69667,-10.5091
2.69833,-10.4808
2.7,-10.4525
2.70167,-10.4241
2.70333,-10.3958
2.705,-10.3674
2.70667,-10.3391
2.70833,-10.3108
2.71,-10.2824
2.71167,-10.2541
2.71333,-10.2259
2.715,-10.1976
2.71667,-10.1694
2.71833,-10.1412
2.72,-10.113
2.72167,-10.0848
2.72333,-10.0567
2.725,-10.0287
2.72667,-10.0006
2.72833,-9.97263
2.73,-9.94468
2.73167,-9.91677
2.73333,-9.88891
2.735,-9.8611
2.73667,-9.83334
2.73833,-9.80563
2.74,-9.77798
2.74167,-9.75038
2.74333,-9.72284
2.745,-9.69536
2.74667,-9.66793
2.74833,-9.64057
2.75,-9.61328
2.75167,-9.58605
2.75333,-9.55888
2.755,-9.53178
2.75667,-9.50475
2.75833,-9.47779
2.76,-9.4509
2.76167,-9.42408
2.76333,-9.39734
2.765,-9.37066
2.76667,-9.34407
2.76833,-9.31755
2.77,-9.2911
2.77167,-9.26473
2.77333,-9.23844
2.775,-9.21223
2.77667,-9.1861
2.77833,-9.16005
2.78,-9.13408
2.78167,-9.1082
2.78333,-9.08239
2.785,-9.05667
2.78667,-9.03103
2.78833,-9.00547
2.79,-8.98
2.79167,-8.95462
2.79333,-8.92932
2.795,-8.9041
2.79667,-8.87897
2.79833,-8.85393
2.8,-8.82897
2.80167,-8.80411
2.80333,-8.77933
2.805,-8.75463
2.80667,-8.73003
2.80833,-8.70551
2.81,-8.68108
2.81167,-8.65674
2.81333,-8.63249
2.815,-8.60833
2.81667,-8.58426
2.81833,-8.56027
2.82,-8.53638
2.82167,-8.51257
2.82333,-8.48886
2.825,-8.46523
2.82667,-8.4417
2.82833,-8.41825
2.83,-8.39489
2.83167,-8.37163
2.83333,-8.34845
2.835,-8.32536
2.83667,-8.30236
2.83833,-8.27945
2.84,-8.25664
2.84167,-8.23391
2.84333,-8.21127
2.845,-8.18872
2.84667,-8.16626
2.84833,-8.14388
2.85,-8.1216
2.85167,-8.09941
2.85333,-8.0773
2.855,-8.05529
2.85667,-8.03336
2.85833,-8.01152
2.86,-7.98977
2.86167,-7.9681
2.86333,-7.94653
2.865,-7.92504
2.86667,-7.90364
2.86833,-7.88233
2.87,-7.8611
2.87167,-7.83996
2.87333,-7.81891
2.875,-7.79794
2.87667,-7.77706
2.87833,-7.75627
2.88,-7.73556
2.88167,-7.71494
2.88333,-7.6944
2.885,-7.67394
2.88667,-7.65358
2.88833,-7.63329
2.89,-7.61309
2.89167,-7.59298
2.89333,-7.57294
2.895,-7.553
2.89667,-7.53313
2.89833,-7.51335
2.9,-7.49365
2.90167,-7.47403
2.90333,-7.45449
2.905,-7.43504
2.90667,-7.41567
2.90833,-7.39638
2.91,-7.37717
2.91167,-7.35804
2.91333,-7.33899
2.915,-7.32002
2.91667,-7.30113
2.91833,-7.28232
2.92,-7.26359
2.92167,-7.24493
2.92333,-7.22636
2.925,-7.20786
2.92667,-7.18944
2.92833,-7.1711
2.93,-7.15284
2.93167,-7.13465
2.93333,-7.11654
2.935,-7.09851
2.93667,-7.08055
2.93833,-7.06266
2.94,-7.04486
2.94167,-7.02712
2.94333,-7.00947
2.945,-6.99188
2.94667,-6.97437
2.94833,-6.95694
2.95,-6.93957
2.95167,-6.92228
2.95333,-6.90507
2.955,-6.88792
2.95667,-6.87085
2.95833,-6.85385
2.96,-6.83692
2.96167,-6.82006
2.96333,-6.80327
2.965,-6.78655
2.96667,-6.76991
2.96833,-6.75333
2.97,-6.73682
2.97167,-6.72038
2.97333,-6.70401
2.975,-6.68771
2.97667,-6.67148
2.97833,-6.65531
2.98,-6.63921
2.98167,-6.62318
2.98333,-6.60722
2.985,-6.59132
2.98667,-6.57549
2.98833,-6.55973
2.99,-6.54403
2.99167,-6.52839
2.99333,-6.51282
2.995,-6.49732
2.99667,-6.48188
2.99833,-6.46651
3,-6.45119
