Frequency in GHz,dB(sub-3\s3_3)
2,-2.33527
2.00167,-2.35116
2.00333,-2.36715
2.005,-2.38326
2.00667,-2.39947
2.00833,-2.4158
2.01,-2.43224
2.01167,-2.44879
2.01333,-2.46546
2.015,-2.48224
2.01667,-2.49914
2.01833,-2.51615
2.02,-2.53328
2.02167,-2.55052
2.02333,-2.56789
2.025,-2.58537
2.02667,-2.60297
2.02833,-2.6207
2.03,-2.63854
2.03167,-2.65651
2.03333,-2.6746
2.035,-2.69281
2.03667,-2.71115
2.03833,-2.72961
2.04,-2.7482
2.04167,-2.76692
2.04333,-2.78576
2.045,-2.80473
2.04667,-2.82384
2.04833,-2.84307
2.05,-2.86243
2.05167,-2.88193
2.05333,-2.90155
2.055,-2.92131
2.05667,-2.94121
2.05833,-2.96124
2.06,-2.98141
2.06167,-3.00171
2.06333,-3.02215
2.065,-3.04274
2.06667,-3.06346
2.06833,-3.08432
2.07,-3.10532
2.07167,-3.12646
2.07333,-3.14775
2.075,-3.16919
2.07667,-3.19076
2.07833,-3.21249
2.08,-3.23436
2.08167,-3.25637
2.08333,-3.27854
2.085,-3.30085
2.08667,-3.32332
2.08833,-3.34594
2.09,-3.36871
2.09167,-3.39163
2.09333,-3.41471
2.095,-3.43794
2.09667,-3.46133
2.09833,-3.48488
2.1,-3.50858
2.10167,-3.53244
2.10333,-3.55647
2.105,-3.58065
2.10667,-3.605
2.10833,-3.62951
2.11,-3.65418
2.11167,-3.67901
2.11333,-3.70402
2.115,-3.72919
2.11667,-3.75453
2.11833,-3.78003
2.12,-3.80571
2.12167,-3.83156
2.12333,-3.85757
2.125,-3.88377
2.12667,-3.91013
2.12833,-3.93667
2.13,-3.96339
2.13167,-3.99028
2.13333,-4.01735
2.135,-4.0446
2.13667,-4.07203
2.13833,-4.09964
2.14,-4.12744
2.14167,-4.15541
2.14333,-4.18358
2.145,-4.21192
2.14667,-4.24045
2.14833,-4.26917
2.15,-4.29808
2.15167,-4.32718
2.15333,-4.35647
2.155,-4.38594
2.15667,-4.41562
2.15833,-4.44548
2.16,-4.47554
2.16167,-4.5058
2.16333,-4.53625
2.165,-4.5669
2.16667,-4.59775
2.16833,-4.6288
2.17,-4.66005
2.17167,-4.69151
2.17333,-4.72316
2.175,-4.75502
2.17667,-4.78709
2.17833,-4.81937
2.18,-4.85185
2.18167,-4.88454
2.18333,-4.91744
2.185,-4.95055
2.18667,-4.98387
2.18833,-5.01741
2.19,-5.05116
2.19167,-5.08512
2.19333,-5.1193
2.195,-5.1537
2.19667,-5.18832
2.19833,-5.22316
2.2,-5.25822
2.20167,-5.2935
2.20333,-5.329
2.205,-5.36473
2.20667,-5.40068
2.20833,-5.43686
2.21,-5.47326
2.21167,-5.50989
2.21333,-5.54676
2.215,-5.58385
2.21667,-5.62117
2.21833,-5.65873
2.22,-5.69652
2.22167,-5.73454
2.22333,-5.7728
2.225,-5.8113
2.22667,-5.85003
2.22833,-5.88901
2.23,-5.92822
2.23167,-5.96767
2.23333,-6.00736
2.235,-6.0473
2.23667,-6.08748
2.23833,-6.1279
2.24,-6.16857
2.24167,-6.20949
2.24333,-6.25065
2.245,-6.29206
2.24667,-6.33372
2.24833,-6.37563
2.25,-6.41779
2.25167,-6.4602
2.25333,-6.50286
2.255,-6.54578
2.25667,-6.58894
2.25833,-6.63237
2.26,-6.67605
2.26167,-6.71998
2.26333,-6.76418
2.265,-6.80863
2.26667,-6.85333
2.26833,-6.8983
2.27,-6.94352
2.27167,-6.98901
2.27333,-7.03476
2.275,-7.08076
2.27667,-7.12703
2.27833,-7.17356
2.28,-7.22035
2.28167,-7.2674
2.28333,-7.31472
2.285,-7.3623
2.28667,-7.41014
2.28833,-7.45825
2.29,-7.50662
2.29167,-7.55525
2.29333,-7.60415
2.295,-7.65331
2.29667,-7.70274
2.29833,-7.75243
2.3,-7.80238
2.30167,-7.85259
2.30333,-7.90307
2.305,-7.95381
2.30667,-8.00481
2.30833,-8.05608
2.31,-8.1076
2.31167,-8.15939
2.31333,-8.21143
2.315,-8.26373
2.31667,-8.31629
2.31833,-8.36911
2.32,-8.42218
2.32167,-8.47551
2.32333,-8.52909
2.325,-8.58292
2.32667,-8.637
2.32833,-8.69133
2.33,-8.7459
2.33167,-8.80072
2.33333,-8.85578
2.335,-8.91108
2.33667,-8.96662
2.33833,-9.0224
2.34,-9.07841
2.34167,-9.13464
2.34333,-9.19111
2.345,-9.2478
2.34667,-9.3047
2.34833,-9.36183
2.35,-9.41917
2.35167,-9.47671
2.35333,-9.53447
2.355,-9.59242
2.35667,-9.65057
2.35833,-9.70891
2.36,-9.76744
2.36167,-9.82615
2.36333,-9.88503
2.365,-9.94409
2.36667,-10.0033
2.36833,-10.0627
2.37,-10.1222
2.37167,-10.1819
2.37333,-10.2417
2.375,-10.3016
2.37667,-10.3617
2.37833,-10.4219
2.38,-10.4821
2.38167,-10.5425
2.38333,-10.603
2.385,-10.6635
2.38667,-10.7241
2.38833,-10.7848
2.39,-10.8455
2.39167,-10.9063
2.39333,-10.967
2.395,-11.0278
2.39667,-11.0886
2.39833,-11.1494
2.4,-11.2101
2.40167,-11.2708
2.40333,-11.3314
2.405,-11.392
2.40667,-11.4525
2.40833,-11.5129
2.41,-11.5731
2.41167,-11.6333
2.41333,-11.6933
2.415,-11.7531
2.41667,-11.8127
2.41833,-11.8721
2.42,-11.9313
2.42167,-11.9902
2.42333,-12.0489
2.425,-12.1073
2.42667,-12.1654
2.42833,-12.2231
2.43,-12.2805
2.43167,-12.3375
2.43333,-12.3942
2.435,-12.4503
2.43667,-12.5061
2.43833,-12.5613
2.44,-12.6161
2.44167,-12.6704
2.44333,-12.724
2.445,-12.7771
2.44667,-12.8296
2.44833,-12.8815
2.45,-12.9327
2.45167,-12.9832
2.45333,-13.033
2.455,-13.0821
2.45667,-13.1303
2.45833,-13.1778
2.46,-13.2244
2.46167,-13.2702
2.46333,-13.3151
2.465,-13.3591
2.46667,-13.4021
2.46833,-13.4442
2.47,-13.4852
2.47167,-13.5252
2.47333,-13.5642
2.475,-13.6021
2.47667,-13.6388
2.47833,-13.6744
2.48,-13.7089
2.48167,-13.7422
2.48333,-13.7743
2.485,-13.8051
2.48667,-13.8347
2.48833,-13.863
2.49,-13.89
2.49167,-13.9157
2.49333,-13.9401
2.495,-13.9631
2.49667,-13.9848
2.49833,-14.0051
2.5,-14.024
2.50167,-14.0415
2.50333,-14.0576
2.505,-14.0723
2.50667,-14.0855
2.50833,-14.0974
2.51,-14.1078
2.51167,-14.1167
2.51333,-14.1242
2.515,-14.1303
2.51667,-14.135
2.51833,-14.1382
2.52,-14.14
2.52167,-14.1404
2.52333,-14.1393
2.525,-14.1369
2.52667,-14.1331
2.52833,-14.1279
2.53,-14.1213
2.53167,-14.1134
2.53333,-14.1042
2.535,-14.0937
2.53667,-14.0818
2.53833,-14.0687
2.54,-14.0543
2.54167,-14.0387
2.54333,-14.0219
2.545,-14.0039
2.54667,-13.9847
2.54833,-13.9644
2.55,-13.943
2.55167,-13.9205
2.55333,-13.8969
2.555,-13.8723
2.55667,-13.8467
2.55833,-13.8201
2.56,-13.7926
2.56167,-13.7641
2.56333,-13.7348
2.565,-13.7045
2.56667,-13.6735
2.56833,-13.6416
2.57,-13.6089
2.57167,-13.5755
2.57333,-13.5413
2.575,-13.5064
2.57667,-13.4709
2.57833,-13.4347
2.58,-13.3979
2.58167,-13.3605
2.58333,-13.3226
2.585,-13.2841
2.58667,-13.245
2.58833,-13.2055
2.59,-13.1655
2.59167,-13.1251
2.59333,-13.0842
2.595,-13.043
2.59667,-13.0014
2.59833,-12.9594
2.6,-12.917
2.60167,-12.8744
2.60333,-12.8315
2.605,-12.7883
2.60667,-12.7448
2.60833,-12.7012
2.61,-12.6573
2.61167,-12.6132
2.61333,-12.5689
2.615,-12.5244
2.61667,-12.4798
2.61833,-12.4351
2.62,-12.3902
2.62167,-12.3453
2.62333,-12.3002
2.625,-12.2551
2.62667,-12.2099
2.62833,-12.1647
2.63,-12.1194
2.63167,-12.0741
2.63333,-12.0288
2.635,-11.9835
2.63667,-11.9382
2.63833,-11.8929
2.64,-11.8476
2.64167,-11.8023
2.64333,-11.7571
2.645,-11.712
2.64667,-11.6669
2.64833,-11.6219
2.65,-11.577
2.65167,-11.5321
2.65333,-11.4873
2.655,-11.4427
2.65667,-11.3981
2.65833,-11.3537
2.66,-11.3093
2.66167,-11.2651
2.66333,-11.221
2.665,-11.177
2.66667,-11.1332
2.66833,-11.0895
2.67,-11.046
2.67167,-11.0026
2.67333,-10.9593
2.675,-10.9162
2.67667,-10.8733
2.67833,-10.8305
2.68,-10.7879
2.68167,-10.7455
2.68333,-10.7032
2.685,-10.6612
2.68667,-10.6192
2.68833,-10.5775
2.69,-10.5359
2.69167,-10.4946
2.69333,-10.4534
2.695,-10.4124
2.69667,-10.3716
2.69833,-10.3309
2.7,-10.2905
2.70167,-10.2503
2.70333,-10.2102
2.705,-10.1704
2.70667,-10.1307
2.70833,-10.0912
2.71,-10.0519
2.71167,-10.0129
2.71333,-9.97399
2.715,-9.93531
2.71667,-9.89683
2.71833,-9.85855
2.72,-9.82046
2.72167,-9.78257
2.72333,-9.74489
2.725,-9.7074
2.72667,-9.67011
2.72833,-9.63302
2.73,-9.59613
2.73167,-9.55944
2.73333,-9.52295
2.735,-9.48665
2.73667,-9.45056
2.73833,-9.41466
2.74,-9.37896
2.74167,-9.34345
2.74333,-9.30815
2.745,-9.27304
2.74667,-9.23812
2.74833,-9.2034
2.75,-9.16888
2.75167,-9.13454
2.75333,-9.10041
2.755,-9.06646
2.75667,-9.03271
2.75833,-8.99915
2.76,-8.96577
2.76167,-8.93259
2.76333,-8.8996
2.765,-8.8668
2.76667,-8.83418
2.76833,-8.80175
2.77,-8.76951
2.77167,-8.73745
2.77333,-8.70557
2.775,-8.67388
2.77667,-8.64237
2.77833,-8.61105
2.78,-8.5799
2.78167,-8.54893
2.78333,-8.51815
2.785,-8.48754
2.78667,-8.4571
2.78833,-8.42685
2.79,-8.39676
2.79167,-8.36686
2.79333,-8.33712
2.795,-8.30756
2.79667,-8.27817
2.79833,-8.24895
2.8,-8.2199
2.80167,-8.19101
2.80333,-8.1623
2.805,-8.13375
2.80667,-8.10536
2.80833,-8.07714
2.81,-8.04909
2.81167,-8.02119
2.81333,-7.99346
2.815,-7.96589
2.81667,-7.93847
2.81833,-7.91122
2.82,-7.88412
2.82167,-7.85718
2.82333,-7.8304
2.825,-7.80377
2.82667,-7.77729
2.82833,-7.75096
2.83,-7.72479
2.83167,-7.69877
2.83333,-7.6729
2.835,-7.64717
2.83667,-7.6216
2.83833,-7.59617
2.84,-7.57089
2.84167,-7.54575
2.84333,-7.52075
2.845,-7.4959
2.84667,-7.47119
2.84833,-7.44662
2.85,-7.4222
2.85167,-7.39791
2.85333,-7.37376
2.855,-7.34974
2.85667,-7.32587
2.85833,-7.30212
2.86,-7.27852
2.86167,-7.25504
2.86333,-7.23171
2.865,-7.2085
2.86667,-7.18542
2.86833,-7.16247
2.87,-7.13966
2.87167,-7.11697
2.87333,-7.09441
2.875,-7.07197
2.87667,-7.04966
2.87833,-7.02748
2.88,-7.00542
2.88167,-6.98348
2.88333,-6.96167
2.885,-6.93998
2.88667,-6.91841
2.88833,-6.89695
2.89,-6.87562
2.89167,-6.85441
2.89333,-6.83331
2.895,-6.81233
2.89667,-6.79147
2.89833,-6.77072
2.9,-6.75009
2.90167,-6.72956
2.90333,-6.70916
2.905,-6.68886
2.90667,-6.66868
2.90833,-6.6486
2.91,-6.62864
2.91167,-6.60878
2.91333,-6.58904
2.915,-6.5694
2.91667,-6.54986
2.91833,-6.53044
2.92,-6.51111
2.92167,-6.4919
2.92333,-6.47278
2.925,-6.45377
2.92667,-6.43487
2.92833,-6.41606
2.93,-6.39736
2.93167,-6.37875
2.93333,-6.36025
2.935,-6.34184
2.93667,-6.32354
2.93833,-6.30533
2.94,-6.28722
2.94167,-6.2692
2.94333,-6.25128
2.945,-6.23346
2.94667,-6.21573
2.94833,-6.19809
2.95,-6.18055
2.95167,-6.16309
2.95333,-6.14574
2.955,-6.12847
2.95667,-6.11129
2.95833,-6.0942
2.96,-6.07721
2.96167,-6.0603
2.96333,-6.04348
2.965,-6.02675
2.96667,-6.0101
2.96833,-5.99354
2.97,-5.97707
2.97167,-5.96068
2.97333,-5.94438
2.975,-5.92816
2.97667,-5.91202
2.97833,-5.89597
2.98,-5.88
2.98167,-5.86411
2.98333,-5.84831
2.985,-5.83258
2.98667,-5.81694
2.98833,-5.80137
2.99,-5.78589
2.99167,-5.77048
2.99333,-5.75515
2.995,-5.7399
2.99667,-5.72473
2.99833,-5.70963
3,-5.69461
