# Version 1.00
#
freq[Hz] db:Trc1_S11 ang:Trc1_S11 db:Trc2_S11 ang:Trc2_S11 db:Trc3_S11 ang:Trc3_S11 db:Trc4_S11 ang:Trc4_S11 
1.950000000000000E+009 -5.041102254843332E+000 -1.493762914128707E+002 -5.041102254843332E+000 -1.493762914128707E+002 -5.041102254843332E+000 -1.493762914128707E+002 -5.041102254843332E+000 -1.493762914128707E+002 
1.955000000000000E+009 -5.033330012294035E+000 -1.520167294617208E+002 -5.033330012294035E+000 -1.520167294617208E+002 -5.033330012294035E+000 -1.520167294617208E+002 -5.033330012294035E+000 -1.520167294617208E+002 
1.960000000000000E+009 -5.044943242119698E+000 -1.547033842411671E+002 -5.044943242119698E+000 -1.547033842411671E+002 -5.044943242119698E+000 -1.547033842411671E+002 -5.044943242119698E+000 -1.547033842411671E+002 
1.965000000000000E+009 -5.064136248589043E+000 -1.573174980032542E+002 -5.064136248589043E+000 -1.573174980032542E+002 -5.064136248589043E+000 -1.573174980032542E+002 -5.064136248589043E+000 -1.573174980032542E+002 
1.970000000000000E+009 -5.094127468191156E+000 -1.599230325227416E+002 -5.094127468191156E+000 -1.599230325227416E+002 -5.094127468191156E+000 -1.599230325227416E+002 -5.094127468191156E+000 -1.599230325227416E+002 
1.975000000000000E+009 -5.134856673010873E+000 -1.624541941951167E+002 -5.134856673010873E+000 -1.624541941951167E+002 -5.134856673010873E+000 -1.624541941951167E+002 -5.134856673010873E+000 -1.624541941951167E+002 
1.980000000000000E+009 -5.182669937451033E+000 -1.649394399892348E+002 -5.182669937451033E+000 -1.649394399892348E+002 -5.182669937451033E+000 -1.649394399892348E+002 -5.182669937451033E+000 -1.649394399892348E+002 
1.985000000000000E+009 -5.230928640742907E+000 -1.672573015743116E+002 -5.230928640742907E+000 -1.672573015743116E+002 -5.230928640742907E+000 -1.672573015743116E+002 -5.230928640742907E+000 -1.672573015743116E+002 
1.990000000000000E+009 -5.293442794217284E+000 -1.697399881293521E+002 -5.293442794217284E+000 -1.697399881293521E+002 -5.293442794217284E+000 -1.697399881293521E+002 -5.293442794217284E+000 -1.697399881293521E+002 
1.995000000000000E+009 -5.366761902321645E+000 -1.721516575982853E+002 -5.366761902321645E+000 -1.721516575982853E+002 -5.366761902321645E+000 -1.721516575982853E+002 -5.366761902321645E+000 -1.721516575982853E+002 
2.000000000000000E+009 -5.449632316108947E+000 -1.745741618242423E+002 -5.449632316108947E+000 -1.745741618242423E+002 -5.449632316108947E+000 -1.745741618242423E+002 -5.449632316108947E+000 -1.745741618242423E+002 
2.005000000000000E+009 -5.545145043833135E+000 -1.769140112235011E+002 -5.545145043833135E+000 -1.769140112235011E+002 -5.545145043833135E+000 -1.769140112235011E+002 -5.545145043833135E+000 -1.769140112235011E+002 
2.010000000000000E+009 -5.648724339002625E+000 -1.791644597261522E+002 -5.648724339002625E+000 -1.791644597261522E+002 -5.648724339002625E+000 -1.791644597261522E+002 -5.648724339002625E+000 -1.791644597261522E+002 
2.015000000000000E+009 -5.754516905430414E+000 1.786585063185452E+002 -5.754516905430414E+000 1.786585063185452E+002 -5.754516905430414E+000 1.786585063185452E+002 -5.754516905430414E+000 1.786585063185452E+002 
2.020000000000000E+009 -5.859071913015732E+000 1.765392054358951E+002 -5.859071913015732E+000 1.765392054358951E+002 -5.859071913015732E+000 1.765392054358951E+002 -5.859071913015732E+000 1.765392054358951E+002 
2.025000000000000E+009 -5.970529114794099E+000 1.744640547584944E+002 -5.970529114794099E+000 1.744640547584944E+002 -5.970529114794099E+000 1.744640547584944E+002 -5.970529114794099E+000 1.744640547584944E+002 
2.030000000000000E+009 -6.086476304347020E+000 1.724681694342592E+002 -6.086476304347020E+000 1.724681694342592E+002 -6.086476304347020E+000 1.724681694342592E+002 -6.086476304347020E+000 1.724681694342592E+002 
2.035000000000000E+009 -6.206054709656269E+000 1.706004590689409E+002 -6.206054709656269E+000 1.706004590689409E+002 -6.206054709656269E+000 1.706004590689409E+002 -6.206054709656269E+000 1.706004590689409E+002 
2.040000000000000E+009 -6.318089216274066E+000 1.688768880523481E+002 -6.318089216274066E+000 1.688768880523481E+002 -6.318089216274066E+000 1.688768880523481E+002 -6.318089216274066E+000 1.688768880523481E+002 
2.045000000000000E+009 -6.411096285160027E+000 1.672641005948958E+002 -6.411096285160027E+000 1.672641005948958E+002 -6.411096285160027E+000 1.672641005948958E+002 -6.411096285160027E+000 1.672641005948958E+002 
2.050000000000000E+009 -6.484035724272010E+000 1.657070986968112E+002 -6.484035724272010E+000 1.657070986968112E+002 -6.484035724272010E+000 1.657070986968112E+002 -6.484035724272010E+000 1.657070986968112E+002 
2.055000000000000E+009 -6.532825802111236E+000 1.642457872092746E+002 -6.532825802111236E+000 1.642457872092746E+002 -6.532825802111236E+000 1.642457872092746E+002 -6.532825802111236E+000 1.642457872092746E+002 
2.060000000000000E+009 -6.555839547906822E+000 1.627452077755105E+002 -6.555839547906822E+000 1.627452077755105E+002 -6.555839547906822E+000 1.627452077755105E+002 -6.555839547906822E+000 1.627452077755105E+002 
2.065000000000000E+009 -6.558228649876518E+000 1.612255247422816E+002 -6.558228649876518E+000 1.612255247422816E+002 -6.558228649876518E+000 1.612255247422816E+002 -6.558228649876518E+000 1.612255247422816E+002 
2.070000000000000E+009 -6.530373409071599E+000 1.596863792380577E+002 -6.530373409071599E+000 1.596863792380577E+002 -6.530373409071599E+000 1.596863792380577E+002 -6.530373409071599E+000 1.596863792380577E+002 
2.075000000000000E+009 -6.480552688046259E+000 1.580107285230604E+002 -6.480552688046259E+000 1.580107285230604E+002 -6.480552688046259E+000 1.580107285230604E+002 -6.480552688046259E+000 1.580107285230604E+002 
2.080000000000000E+009 -6.425930671042352E+000 1.563082004670445E+002 -6.425930671042352E+000 1.563082004670445E+002 -6.425930671042352E+000 1.563082004670445E+002 -6.425930671042352E+000 1.563082004670445E+002 
2.085000000000000E+009 -6.342431867793819E+000 1.545325939319144E+002 -6.342431867793819E+000 1.545325939319144E+002 -6.342431867793819E+000 1.545325939319144E+002 -6.342431867793819E+000 1.545325939319144E+002 
2.090000000000000E+009 -6.238235413394813E+000 1.526234357608456E+002 -6.238235413394813E+000 1.526234357608456E+002 -6.238235413394813E+000 1.526234357608456E+002 -6.238235413394813E+000 1.526234357608456E+002 
2.095000000000000E+009 -6.117788173907116E+000 1.505940047290429E+002 -6.117788173907116E+000 1.505940047290429E+002 -6.117788173907116E+000 1.505940047290429E+002 -6.117788173907116E+000 1.505940047290429E+002 
2.100000000000000E+009 -5.994208739707497E+000 1.483604166958280E+002 -5.994208739707497E+000 1.483604166958280E+002 -5.994208739707497E+000 1.483604166958280E+002 -5.994208739707497E+000 1.483604166958280E+002 
2.105000000000000E+009 -5.872860693523024E+000 1.459544157300396E+002 -5.872860693523024E+000 1.459544157300396E+002 -5.872860693523024E+000 1.459544157300396E+002 -5.872860693523024E+000 1.459544157300396E+002 
2.110000000000000E+009 -5.756241271567316E+000 1.434852329109166E+002 -5.756241271567316E+000 1.434852329109166E+002 -5.756241271567316E+000 1.434852329109166E+002 -5.756241271567316E+000 1.434852329109166E+002 
2.115000000000000E+009 -5.645500941512804E+000 1.409140148361482E+002 -5.645500941512804E+000 1.409140148361482E+002 -5.645500941512804E+000 1.409140148361482E+002 -5.645500941512804E+000 1.409140148361482E+002 
2.120000000000000E+009 -5.538816195854761E+000 1.382989168886309E+002 -5.538816195854761E+000 1.382989168886309E+002 -5.538816195854761E+000 1.382989168886309E+002 -5.538816195854761E+000 1.382989168886309E+002 
2.125000000000000E+009 -5.441746598743779E+000 1.355668525806975E+002 -5.441746598743779E+000 1.355668525806975E+002 -5.441746598743779E+000 1.355668525806975E+002 -5.441746598743779E+000 1.355668525806975E+002 
2.130000000000000E+009 -5.354953772522582E+000 1.327737159618148E+002 -5.354953772522582E+000 1.327737159618148E+002 -5.354953772522582E+000 1.327737159618148E+002 -5.354953772522582E+000 1.327737159618148E+002 
2.135000000000000E+009 -5.283364413155150E+000 1.299452786135397E+002 -5.283364413155150E+000 1.299452786135397E+002 -5.283364413155150E+000 1.299452786135397E+002 -5.283364413155150E+000 1.299452786135397E+002 
2.140000000000000E+009 -5.217191250743798E+000 1.270963693225727E+002 -5.217191250743798E+000 1.270963693225727E+002 -5.217191250743798E+000 1.270963693225727E+002 -5.217191250743798E+000 1.270963693225727E+002 
2.145000000000000E+009 -5.166894880033421E+000 1.242654984162682E+002 -5.166894880033421E+000 1.242654984162682E+002 -5.166894880033421E+000 1.242654984162682E+002 -5.166894880033421E+000 1.242654984162682E+002 
2.150000000000000E+009 -5.118839443980114E+000 1.214421462460390E+002 -5.118839443980114E+000 1.214421462460390E+002 -5.118839443980114E+000 1.214421462460390E+002 -5.118839443980114E+000 1.214421462460390E+002 
2.155000000000000E+009 -5.080677727356245E+000 1.185874679807105E+002 -5.080677727356245E+000 1.185874679807105E+002 -5.080677727356245E+000 1.185874679807105E+002 -5.080677727356245E+000 1.185874679807105E+002 
2.160000000000000E+009 -5.045482955266829E+000 1.156945122362872E+002 -5.045482955266829E+000 1.156945122362872E+002 -5.045482955266829E+000 1.156945122362872E+002 -5.045482955266829E+000 1.156945122362872E+002 
2.165000000000000E+009 -5.019642376321960E+000 1.128285704101205E+002 -5.019642376321960E+000 1.128285704101205E+002 -5.019642376321960E+000 1.128285704101205E+002 -5.019642376321960E+000 1.128285704101205E+002 
2.170000000000000E+009 -4.993154112176981E+000 1.099453146912081E+002 -4.993154112176981E+000 1.099453146912081E+002 -4.993154112176981E+000 1.099453146912081E+002 -4.993154112176981E+000 1.099453146912081E+002 
2.175000000000000E+009 -4.979937767660386E+000 1.070007964596497E+002 -4.979937767660386E+000 1.070007964596497E+002 -4.979937767660386E+000 1.070007964596497E+002 -4.979937767660386E+000 1.070007964596497E+002 
2.180000000000000E+009 -4.977539597975007E+000 1.040816038112836E+002 -4.977539597975007E+000 1.040816038112836E+002 -4.977539597975007E+000 1.040816038112836E+002 -4.977539597975007E+000 1.040816038112836E+002 
2.185000000000000E+009 -4.985758913898690E+000 1.011827950320171E+002 -4.985758913898690E+000 1.011827950320171E+002 -4.985758913898690E+000 1.011827950320171E+002 -4.985758913898690E+000 1.011827950320171E+002 
2.190000000000000E+009 -4.991242197750425E+000 9.837353700190128E+001 -4.991242197750425E+000 9.837353700190128E+001 -4.991242197750425E+000 9.837353700190128E+001 -4.991242197750425E+000 9.837353700190128E+001 
2.195000000000000E+009 -4.995326447153262E+000 9.550035235868039E+001 -4.995326447153262E+000 9.550035235868039E+001 -4.995326447153262E+000 9.550035235868039E+001 -4.995326447153262E+000 9.550035235868039E+001 
2.200000000000000E+009 -5.002832853152078E+000 9.266093612528289E+001 -5.002832853152078E+000 9.266093612528289E+001 -5.002832853152078E+000 9.266093612528289E+001 -5.002832853152078E+000 9.266093612528289E+001 
2.205000000000000E+009 -5.016078918301267E+000 8.983034821383414E+001 -5.016078918301267E+000 8.983034821383414E+001 -5.016078918301267E+000 8.983034821383414E+001 -5.016078918301267E+000 8.983034821383414E+001 
2.210000000000000E+009 -5.034082038222218E+000 8.703600162869822E+001 -5.034082038222218E+000 8.703600162869822E+001 -5.034082038222218E+000 8.703600162869822E+001 -5.034082038222218E+000 8.703600162869822E+001 
2.215000000000000E+009 -5.050820867227433E+000 8.433784168113355E+001 -5.050820867227433E+000 8.433784168113355E+001 -5.050820867227433E+000 8.433784168113355E+001 -5.050820867227433E+000 8.433784168113355E+001 
2.220000000000000E+009 -5.057081000326386E+000 8.164965364173563E+001 -5.057081000326386E+000 8.164965364173563E+001 -5.057081000326386E+000 8.164965364173563E+001 -5.057081000326386E+000 8.164965364173563E+001 
2.225000000000000E+009 -5.063923732603780E+000 7.901897397474545E+001 -5.063923732603780E+000 7.901897397474545E+001 -5.063923732603780E+000 7.901897397474545E+001 -5.063923732603780E+000 7.901897397474545E+001 
2.230000000000000E+009 -5.064870563106122E+000 7.643821470275553E+001 -5.064870563106122E+000 7.643821470275553E+001 -5.064870563106122E+000 7.643821470275553E+001 -5.064870563106122E+000 7.643821470275553E+001 
2.235000000000000E+009 -5.061103549082162E+000 7.387184403551004E+001 -5.061103549082162E+000 7.387184403551004E+001 -5.061103549082162E+000 7.387184403551004E+001 -5.061103549082162E+000 7.387184403551004E+001 
2.240000000000000E+009 -5.052542245475487E+000 7.136837835524031E+001 -5.052542245475487E+000 7.136837835524031E+001 -5.052542245475487E+000 7.136837835524031E+001 -5.052542245475487E+000 7.136837835524031E+001 
2.245000000000000E+009 -5.031724347144285E+000 6.895815334500149E+001 -5.031724347144285E+000 6.895815334500149E+001 -5.031724347144285E+000 6.895815334500149E+001 -5.031724347144285E+000 6.895815334500149E+001 
2.250000000000000E+009 -5.000424544823196E+000 6.659440526021784E+001 -5.000424544823196E+000 6.659440526021784E+001 -5.000424544823196E+000 6.659440526021784E+001 -5.000424544823196E+000 6.659440526021784E+001 
2.255000000000000E+009 -4.951215124168370E+000 6.424724528036427E+001 -4.951215124168370E+000 6.424724528036427E+001 -4.951215124168370E+000 6.424724528036427E+001 -4.951215124168370E+000 6.424724528036427E+001 
2.260000000000000E+009 -4.890514143934712E+000 6.189396821738169E+001 -4.890514143934712E+000 6.189396821738169E+001 -4.890514143934712E+000 6.189396821738169E+001 -4.890514143934712E+000 6.189396821738169E+001 
2.265000000000000E+009 -4.818248114038339E+000 5.948872882709622E+001 -4.818248114038339E+000 5.948872882709622E+001 -4.818248114038339E+000 5.948872882709622E+001 -4.818248114038339E+000 5.948872882709622E+001 
2.270000000000000E+009 -4.743170275387393E+000 5.709341820738697E+001 -4.743170275387393E+000 5.709341820738697E+001 -4.743170275387393E+000 5.709341820738697E+001 -4.743170275387393E+000 5.709341820738697E+001 
2.275000000000000E+009 -4.657174283739369E+000 5.466923036258947E+001 -4.657174283739369E+000 5.466923036258947E+001 -4.657174283739369E+000 5.466923036258947E+001 -4.657174283739369E+000 5.466923036258947E+001 
2.280000000000000E+009 -4.570758585035748E+000 5.221107013470243E+001 -4.570758585035748E+000 5.221107013470243E+001 -4.570758585035748E+000 5.221107013470243E+001 -4.570758585035748E+000 5.221107013470243E+001 
2.285000000000000E+009 -4.477757423331295E+000 4.973441846358224E+001 -4.477757423331295E+000 4.973441846358224E+001 -4.477757423331295E+000 4.973441846358224E+001 -4.477757423331295E+000 4.973441846358224E+001 
2.290000000000000E+009 -4.377663929405959E+000 4.719940211586285E+001 -4.377663929405959E+000 4.719940211586285E+001 -4.377663929405959E+000 4.719940211586285E+001 -4.377663929405959E+000 4.719940211586285E+001 
2.295000000000000E+009 -4.279039587859381E+000 4.462085408043841E+001 -4.279039587859381E+000 4.462085408043841E+001 -4.279039587859381E+000 4.462085408043841E+001 -4.279039587859381E+000 4.462085408043841E+001 
2.300000000000000E+009 -4.179999335960477E+000 4.200059080347658E+001 -4.179999335960477E+000 4.200059080347658E+001 -4.179999335960477E+000 4.200059080347658E+001 -4.179999335960477E+000 4.200059080347658E+001 
2.305000000000000E+009 -4.085597228715917E+000 3.933247356296027E+001 -4.085597228715917E+000 3.933247356296027E+001 -4.085597228715917E+000 3.933247356296027E+001 -4.085597228715917E+000 3.933247356296027E+001 
2.310000000000000E+009 -3.993288147850524E+000 3.663834049975266E+001 -3.993288147850524E+000 3.663834049975266E+001 -3.993288147850524E+000 3.663834049975266E+001 -3.993288147850524E+000 3.663834049975266E+001 
2.315000000000000E+009 -3.901406203421790E+000 3.391566299131004E+001 -3.901406203421790E+000 3.391566299131004E+001 -3.901406203421790E+000 3.391566299131004E+001 -3.901406203421790E+000 3.391566299131004E+001 
2.320000000000000E+009 -3.819889546195450E+000 3.116530944629857E+001 -3.819889546195450E+000 3.116530944629857E+001 -3.819889546195450E+000 3.116530944629857E+001 -3.819889546195450E+000 3.116530944629857E+001 
2.325000000000000E+009 -3.744552065513925E+000 2.841142527271231E+001 -3.744552065513925E+000 2.841142527271231E+001 -3.744552065513925E+000 2.841142527271231E+001 -3.744552065513925E+000 2.841142527271231E+001 
2.330000000000000E+009 -3.669961836930912E+000 2.564576751748137E+001 -3.669961836930912E+000 2.564576751748137E+001 -3.669961836930912E+000 2.564576751748137E+001 -3.669961836930912E+000 2.564576751748137E+001 
2.335000000000000E+009 -3.604302702265882E+000 2.289315156414022E+001 -3.604302702265882E+000 2.289315156414022E+001 -3.604302702265882E+000 2.289315156414022E+001 -3.604302702265882E+000 2.289315156414022E+001 
2.340000000000000E+009 -3.537258233107040E+000 2.014597564414959E+001 -3.537258233107040E+000 2.014597564414959E+001 -3.537258233107040E+000 2.014597564414959E+001 -3.537258233107040E+000 2.014597564414959E+001 
2.345000000000000E+009 -3.469825159224037E+000 1.741304448136651E+001 -3.469825159224037E+000 1.741304448136651E+001 -3.469825159224037E+000 1.741304448136651E+001 -3.469825159224037E+000 1.741304448136651E+001 
2.350000000000000E+009 -3.410077941331807E+000 1.463426189109048E+001 -3.410077941331807E+000 1.463426189109048E+001 -3.410077941331807E+000 1.463426189109048E+001 -3.410077941331807E+000 1.463426189109048E+001 
2.355000000000000E+009 -3.354469338489618E+000 1.186497753932086E+001 -3.354469338489618E+000 1.186497753932086E+001 -3.354469338489618E+000 1.186497753932086E+001 -3.354469338489618E+000 1.186497753932086E+001 
2.360000000000000E+009 -3.309572681282281E+000 9.079597313398615E+000 -3.309572681282281E+000 9.079597313398615E+000 -3.309572681282281E+000 9.079597313398615E+000 -3.309572681282281E+000 9.079597313398615E+000 
2.365000000000000E+009 -3.268551311907614E+000 6.344844780474005E+000 -3.268551311907614E+000 6.344844780474005E+000 -3.268551311907614E+000 6.344844780474005E+000 -3.268551311907614E+000 6.344844780474005E+000 
2.370000000000000E+009 -3.238746167514047E+000 3.678540480761381E+000 -3.238746167514047E+000 3.678540480761381E+000 -3.238746167514047E+000 3.678540480761381E+000 -3.238746167514047E+000 3.678540480761381E+000 
2.375000000000000E+009 -3.207357469634555E+000 1.051785361449318E+000 -3.207357469634555E+000 1.051785361449318E+000 -3.207357469634555E+000 1.051785361449318E+000 -3.207357469634555E+000 1.051785361449318E+000 
2.380000000000000E+009 -3.180260383550732E+000 -1.549293931599344E+000 -3.180260383550732E+000 -1.549293931599344E+000 -3.180260383550732E+000 -1.549293931599344E+000 -3.180260383550732E+000 -1.549293931599344E+000 
2.385000000000000E+009 -3.158498173442644E+000 -4.085499347812882E+000 -3.158498173442644E+000 -4.085499347812882E+000 -3.158498173442644E+000 -4.085499347812882E+000 -3.158498173442644E+000 -4.085499347812882E+000 
2.390000000000000E+009 -3.135669290413600E+000 -6.608439526792258E+000 -3.135669290413600E+000 -6.608439526792258E+000 -3.135669290413600E+000 -6.608439526792258E+000 -3.135669290413600E+000 -6.608439526792258E+000 
2.395000000000000E+009 -3.113735488513390E+000 -9.049416033957453E+000 -3.113735488513390E+000 -9.049416033957453E+000 -3.113735488513390E+000 -9.049416033957453E+000 -3.113735488513390E+000 -9.049416033957453E+000 
2.400000000000000E+009 -3.093894248864324E+000 -1.142771975376457E+001 -3.093894248864324E+000 -1.142771975376457E+001 -3.093894248864324E+000 -1.142771975376457E+001 -3.093894248864324E+000 -1.142771975376457E+001 
2.405000000000000E+009 -3.070521614598606E+000 -1.377255316286592E+001 -3.070521614598606E+000 -1.377255316286592E+001 -3.070521614598606E+000 -1.377255316286592E+001 -3.070521614598606E+000 -1.377255316286592E+001 
