# Version 1.00
#
freq[Hz] db:Trc1_S11 ang:Trc1_S11 db:Trc2_S11 ang:Trc2_S11 db:Trc3_S11 ang:Trc3_S11 db:Trc4_S11 ang:Trc4_S11 
1.950000000000000E+009 -4.910070835415747E+000 -8.653145133950281E+001 -4.910070835415747E+000 -8.653145133950281E+001 -4.910070835415747E+000 -8.653145133950281E+001 -4.910070835415747E+000 -8.653145133950281E+001 
1.955000000000000E+009 -4.985889982911740E+000 -8.652545884024478E+001 -4.985889982911740E+000 -8.652545884024478E+001 -4.985889982911740E+000 -8.652545884024478E+001 -4.985889982911740E+000 -8.652545884024478E+001 
1.960000000000000E+009 -5.100201730738826E+000 -8.642593772641580E+001 -5.100201730738826E+000 -8.642593772641580E+001 -5.100201730738826E+000 -8.642593772641580E+001 -5.100201730738826E+000 -8.642593772641580E+001 
1.965000000000000E+009 -5.244738460398362E+000 -8.631241582008921E+001 -5.244738460398362E+000 -8.631241582008921E+001 -5.244738460398362E+000 -8.631241582008921E+001 -5.244738460398362E+000 -8.631241582008921E+001 
1.970000000000000E+009 -5.425199496130903E+000 -8.620908982954543E+001 -5.425199496130903E+000 -8.620908982954543E+001 -5.425199496130903E+000 -8.620908982954543E+001 -5.425199496130903E+000 -8.620908982954543E+001 
1.975000000000000E+009 -5.632444139397566E+000 -8.614028483956938E+001 -5.632444139397566E+000 -8.614028483956938E+001 -5.632444139397566E+000 -8.614028483956938E+001 -5.632444139397566E+000 -8.614028483956938E+001 
1.980000000000000E+009 -5.876727077411868E+000 -8.623736746642787E+001 -5.876727077411868E+000 -8.623736746642787E+001 -5.876727077411868E+000 -8.623736746642787E+001 -5.876727077411868E+000 -8.623736746642787E+001 
1.985000000000000E+009 -6.160622521287888E+000 -8.651341797529777E+001 -6.160622521287888E+000 -8.651341797529777E+001 -6.160622521287888E+000 -8.651341797529777E+001 -6.160622521287888E+000 -8.651341797529777E+001 
1.990000000000000E+009 -6.477092569901674E+000 -8.694402567700070E+001 -6.477092569901674E+000 -8.694402567700070E+001 -6.477092569901674E+000 -8.694402567700070E+001 -6.477092569901674E+000 -8.694402567700070E+001 
1.995000000000000E+009 -6.843415218908273E+000 -8.762823469196343E+001 -6.843415218908273E+000 -8.762823469196343E+001 -6.843415218908273E+000 -8.762823469196343E+001 -6.843415218908273E+000 -8.762823469196343E+001 
2.000000000000000E+009 -7.234418486089219E+000 -8.840160671025546E+001 -7.234418486089219E+000 -8.840160671025546E+001 -7.234418486089219E+000 -8.840160671025546E+001 -7.234418486089219E+000 -8.840160671025546E+001 
2.005000000000000E+009 -7.650096202387049E+000 -8.941281691481225E+001 -7.650096202387049E+000 -8.941281691481225E+001 -7.650096202387049E+000 -8.941281691481225E+001 -7.650096202387049E+000 -8.941281691481225E+001 
2.010000000000000E+009 -8.058808628511697E+000 -9.071639176628460E+001 -8.058808628511697E+000 -9.071639176628460E+001 -8.058808628511697E+000 -9.071639176628460E+001 -8.058808628511697E+000 -9.071639176628460E+001 
2.015000000000000E+009 -8.457669417269536E+000 -9.240487559121169E+001 -8.457669417269536E+000 -9.240487559121169E+001 -8.457669417269536E+000 -9.240487559121169E+001 -8.457669417269536E+000 -9.240487559121169E+001 
2.020000000000000E+009 -8.835351567212074E+000 -9.447229866654078E+001 -8.835351567212074E+000 -9.447229866654078E+001 -8.835351567212074E+000 -9.447229866654078E+001 -8.835351567212074E+000 -9.447229866654078E+001 
2.025000000000000E+009 -9.168789072594791E+000 -9.697257550629685E+001 -9.168789072594791E+000 -9.697257550629685E+001 -9.168789072594791E+000 -9.697257550629685E+001 -9.168789072594791E+000 -9.697257550629685E+001 
2.030000000000000E+009 -9.442885342797228E+000 -9.987487731079753E+001 -9.442885342797228E+000 -9.987487731079753E+001 -9.442885342797228E+000 -9.987487731079753E+001 -9.442885342797228E+000 -9.987487731079753E+001 
2.035000000000000E+009 -9.633113372051858E+000 -1.031453573273955E+002 -9.633113372051858E+000 -1.031453573273955E+002 -9.633113372051858E+000 -1.031453573273955E+002 -9.633113372051858E+000 -1.031453573273955E+002 
2.040000000000000E+009 -9.744872749728698E+000 -1.067715503859030E+002 -9.744872749728698E+000 -1.067715503859030E+002 -9.744872749728698E+000 -1.067715503859030E+002 -9.744872749728698E+000 -1.067715503859030E+002 
2.045000000000000E+009 -9.762120479219169E+000 -1.105679604892871E+002 -9.762120479219169E+000 -1.105679604892871E+002 -9.762120479219169E+000 -1.105679604892871E+002 -9.762120479219169E+000 -1.105679604892871E+002 
2.050000000000000E+009 -9.718659619381651E+000 -1.143935834923109E+002 -9.718659619381651E+000 -1.143935834923109E+002 -9.718659619381651E+000 -1.143935834923109E+002 -9.718659619381651E+000 -1.143935834923109E+002 
2.055000000000000E+009 -9.613239761481358E+000 -1.178481263671709E+002 -9.613239761481358E+000 -1.178481263671709E+002 -9.613239761481358E+000 -1.178481263671709E+002 -9.613239761481358E+000 -1.178481263671709E+002 
2.060000000000000E+009 -9.431520545570546E+000 -1.208078990299949E+002 -9.431520545570546E+000 -1.208078990299949E+002 -9.431520545570546E+000 -1.208078990299949E+002 -9.431520545570546E+000 -1.208078990299949E+002 
2.065000000000000E+009 -9.171042273576664E+000 -1.233743326161696E+002 -9.171042273576664E+000 -1.233743326161696E+002 -9.171042273576664E+000 -1.233743326161696E+002 -9.171042273576664E+000 -1.233743326161696E+002 
2.070000000000000E+009 -8.872715093381826E+000 -1.256640485071293E+002 -8.872715093381826E+000 -1.256640485071293E+002 -8.872715093381826E+000 -1.256640485071293E+002 -8.872715093381826E+000 -1.256640485071293E+002 
2.075000000000000E+009 -8.575055928408048E+000 -1.275739787269481E+002 -8.575055928408048E+000 -1.275739787269481E+002 -8.575055928408048E+000 -1.275739787269481E+002 -8.575055928408048E+000 -1.275739787269481E+002 
2.080000000000000E+009 -8.282710122248210E+000 -1.290428338199510E+002 -8.282710122248210E+000 -1.290428338199510E+002 -8.282710122248210E+000 -1.290428338199510E+002 -8.282710122248210E+000 -1.290428338199510E+002 
2.085000000000000E+009 -8.021462797626151E+000 -1.301260098305538E+002 -8.021462797626151E+000 -1.301260098305538E+002 -8.021462797626151E+000 -1.301260098305538E+002 -8.021462797626151E+000 -1.301260098305538E+002 
2.090000000000000E+009 -7.780534819958517E+000 -1.307433878222198E+002 -7.780534819958517E+000 -1.307433878222198E+002 -7.780534819958517E+000 -1.307433878222198E+002 -7.780534819958517E+000 -1.307433878222198E+002 
2.095000000000000E+009 -7.551024894874233E+000 -1.309766895373176E+002 -7.551024894874233E+000 -1.309766895373176E+002 -7.551024894874233E+000 -1.309766895373176E+002 -7.551024894874233E+000 -1.309766895373176E+002 
2.100000000000000E+009 -7.335551058248441E+000 -1.310474074914081E+002 -7.335551058248441E+000 -1.310474074914081E+002 -7.335551058248441E+000 -1.310474074914081E+002 -7.335551058248441E+000 -1.310474074914081E+002 
2.105000000000000E+009 -7.166356668353213E+000 -1.310538233451483E+002 -7.166356668353213E+000 -1.310538233451483E+002 -7.166356668353213E+000 -1.310538233451483E+002 -7.166356668353213E+000 -1.310538233451483E+002 
2.110000000000000E+009 -7.058214938221105E+000 -1.308719938375687E+002 -7.058214938221105E+000 -1.308719938375687E+002 -7.058214938221105E+000 -1.308719938375687E+002 -7.058214938221105E+000 -1.308719938375687E+002 
2.115000000000000E+009 -7.000384263883435E+000 -1.305105843575903E+002 -7.000384263883435E+000 -1.305105843575903E+002 -7.000384263883435E+000 -1.305105843575903E+002 -7.000384263883435E+000 -1.305105843575903E+002 
2.120000000000000E+009 -6.986848150215025E+000 -1.299081653136634E+002 -6.986848150215025E+000 -1.299081653136634E+002 -6.986848150215025E+000 -1.299081653136634E+002 -6.986848150215025E+000 -1.299081653136634E+002 
2.125000000000000E+009 -7.011235833314191E+000 -1.292036082540008E+002 -7.011235833314191E+000 -1.292036082540008E+002 -7.011235833314191E+000 -1.292036082540008E+002 -7.011235833314191E+000 -1.292036082540008E+002 
2.130000000000000E+009 -7.066952248747881E+000 -1.284080439517875E+002 -7.066952248747881E+000 -1.284080439517875E+002 -7.066952248747881E+000 -1.284080439517875E+002 -7.066952248747881E+000 -1.284080439517875E+002 
2.135000000000000E+009 -7.167083070476759E+000 -1.276768672522057E+002 -7.167083070476759E+000 -1.276768672522057E+002 -7.167083070476759E+000 -1.276768672522057E+002 -7.167083070476759E+000 -1.276768672522057E+002 
2.140000000000000E+009 -7.324023334055741E+000 -1.268981324936779E+002 -7.324023334055741E+000 -1.268981324936779E+002 -7.324023334055741E+000 -1.268981324936779E+002 -7.324023334055741E+000 -1.268981324936779E+002 
2.145000000000000E+009 -7.513801967482084E+000 -1.260468258344541E+002 -7.513801967482084E+000 -1.260468258344541E+002 -7.513801967482084E+000 -1.260468258344541E+002 -7.513801967482084E+000 -1.260468258344541E+002 
2.150000000000000E+009 -7.723622302069205E+000 -1.251436687204341E+002 -7.723622302069205E+000 -1.251436687204341E+002 -7.723622302069205E+000 -1.251436687204341E+002 -7.723622302069205E+000 -1.251436687204341E+002 
2.155000000000000E+009 -7.921990073552378E+000 -1.245018202839960E+002 -7.921990073552378E+000 -1.245018202839960E+002 -7.921990073552378E+000 -1.245018202839960E+002 -7.921990073552378E+000 -1.245018202839960E+002 
2.160000000000000E+009 -8.152333289039422E+000 -1.242134038425408E+002 -8.152333289039422E+000 -1.242134038425408E+002 -8.152333289039422E+000 -1.242134038425408E+002 -8.152333289039422E+000 -1.242134038425408E+002 
2.165000000000000E+009 -8.402139313355166E+000 -1.242957990233001E+002 -8.402139313355166E+000 -1.242957990233001E+002 -8.402139313355166E+000 -1.242957990233001E+002 -8.402139313355166E+000 -1.242957990233001E+002 
2.170000000000000E+009 -8.679413116781609E+000 -1.248954813429792E+002 -8.679413116781609E+000 -1.248954813429792E+002 -8.679413116781609E+000 -1.248954813429792E+002 -8.679413116781609E+000 -1.248954813429792E+002 
2.175000000000000E+009 -8.987421580180357E+000 -1.259665652592488E+002 -8.987421580180357E+000 -1.259665652592488E+002 -8.987421580180357E+000 -1.259665652592488E+002 -8.987421580180357E+000 -1.259665652592488E+002 
2.180000000000000E+009 -9.316633741680816E+000 -1.275031293113096E+002 -9.316633741680816E+000 -1.275031293113096E+002 -9.316633741680816E+000 -1.275031293113096E+002 -9.316633741680816E+000 -1.275031293113096E+002 
2.185000000000000E+009 -9.634151800445178E+000 -1.294228928762666E+002 -9.634151800445178E+000 -1.294228928762666E+002 -9.634151800445178E+000 -1.294228928762666E+002 -9.634151800445178E+000 -1.294228928762666E+002 
2.190000000000000E+009 -9.912815405133170E+000 -1.320072560687173E+002 -9.912815405133170E+000 -1.320072560687173E+002 -9.912815405133170E+000 -1.320072560687173E+002 -9.912815405133170E+000 -1.320072560687173E+002 
2.195000000000000E+009 -1.016742840941771E+001 -1.351551009380693E+002 -1.016742840941771E+001 -1.351551009380693E+002 -1.016742840941771E+001 -1.351551009380693E+002 -1.016742840941771E+001 -1.351551009380693E+002 
2.200000000000000E+009 -1.035191609574254E+001 -1.386565575145537E+002 -1.035191609574254E+001 -1.386565575145537E+002 -1.035191609574254E+001 -1.386565575145537E+002 -1.035191609574254E+001 -1.386565575145537E+002 
2.205000000000000E+009 -1.041397455162418E+001 -1.425430437284530E+002 -1.041397455162418E+001 -1.425430437284530E+002 -1.041397455162418E+001 -1.425430437284530E+002 -1.041397455162418E+001 -1.425430437284530E+002 
2.210000000000000E+009 -1.038662182675637E+001 -1.468840097850149E+002 -1.038662182675637E+001 -1.468840097850149E+002 -1.038662182675637E+001 -1.468840097850149E+002 -1.038662182675637E+001 -1.468840097850149E+002 
2.215000000000000E+009 -1.027676883988717E+001 -1.512598477375890E+002 -1.027676883988717E+001 -1.512598477375890E+002 -1.027676883988717E+001 -1.512598477375890E+002 -1.027676883988717E+001 -1.512598477375890E+002 
2.220000000000000E+009 -1.009248084943855E+001 -1.553551561797028E+002 -1.009248084943855E+001 -1.553551561797028E+002 -1.009248084943855E+001 -1.553551561797028E+002 -1.009248084943855E+001 -1.553551561797028E+002 
2.225000000000000E+009 -9.818261550622999E+000 -1.590141715848299E+002 -9.818261550622999E+000 -1.590141715848299E+002 -9.818261550622999E+000 -1.590141715848299E+002 -9.818261550622999E+000 -1.590141715848299E+002 
2.230000000000000E+009 -9.485514066574089E+000 -1.623213107580284E+002 -9.485514066574089E+000 -1.623213107580284E+002 -9.485514066574089E+000 -1.623213107580284E+002 -9.485514066574089E+000 -1.623213107580284E+002 
2.235000000000000E+009 -9.133727084325622E+000 -1.651195702482997E+002 -9.133727084325622E+000 -1.651195702482997E+002 -9.133727084325622E+000 -1.651195702482997E+002 -9.133727084325622E+000 -1.651195702482997E+002 
2.240000000000000E+009 -8.763107060237148E+000 -1.673713258703064E+002 -8.763107060237148E+000 -1.673713258703064E+002 -8.763107060237148E+000 -1.673713258703064E+002 -8.763107060237148E+000 -1.673713258703064E+002 
2.245000000000000E+009 -8.400683750759255E+000 -1.691625355801179E+002 -8.400683750759255E+000 -1.691625355801179E+002 -8.400683750759255E+000 -1.691625355801179E+002 -8.400683750759255E+000 -1.691625355801179E+002 
2.250000000000000E+009 -8.082034226436457E+000 -1.704963837188182E+002 -8.082034226436457E+000 -1.704963837188182E+002 -8.082034226436457E+000 -1.704963837188182E+002 -8.082034226436457E+000 -1.704963837188182E+002 
2.255000000000000E+009 -7.781241053406879E+000 -1.711976876344784E+002 -7.781241053406879E+000 -1.711976876344784E+002 -7.781241053406879E+000 -1.711976876344784E+002 -7.781241053406879E+000 -1.711976876344784E+002 
2.260000000000000E+009 -7.501284301867202E+000 -1.716023332254971E+002 -7.501284301867202E+000 -1.716023332254971E+002 -7.501284301867202E+000 -1.716023332254971E+002 -7.501284301867202E+000 -1.716023332254971E+002 
2.265000000000000E+009 -7.250900226045425E+000 -1.715905742855992E+002 -7.250900226045425E+000 -1.715905742855992E+002 -7.250900226045425E+000 -1.715905742855992E+002 -7.250900226045425E+000 -1.715905742855992E+002 
2.270000000000000E+009 -7.020917585429395E+000 -1.714273030811994E+002 -7.020917585429395E+000 -1.714273030811994E+002 -7.020917585429395E+000 -1.714273030811994E+002 -7.020917585429395E+000 -1.714273030811994E+002 
2.275000000000000E+009 -6.833971493920894E+000 -1.712004121922012E+002 -6.833971493920894E+000 -1.712004121922012E+002 -6.833971493920894E+000 -1.712004121922012E+002 -6.833971493920894E+000 -1.712004121922012E+002 
2.280000000000000E+009 -6.714042600581582E+000 -1.708181786854161E+002 -6.714042600581582E+000 -1.708181786854161E+002 -6.714042600581582E+000 -1.708181786854161E+002 -6.714042600581582E+000 -1.708181786854161E+002 
2.285000000000000E+009 -6.648639064597988E+000 -1.701812480220455E+002 -6.648639064597988E+000 -1.701812480220455E+002 -6.648639064597988E+000 -1.701812480220455E+002 -6.648639064597988E+000 -1.701812480220455E+002 
2.290000000000000E+009 -6.619498411372840E+000 -1.693508122194263E+002 -6.619498411372840E+000 -1.693508122194263E+002 -6.619498411372840E+000 -1.693508122194263E+002 -6.619498411372840E+000 -1.693508122194263E+002 
2.295000000000000E+009 -6.623248079354092E+000 -1.684030062963600E+002 -6.623248079354092E+000 -1.684030062963600E+002 -6.623248079354092E+000 -1.684030062963600E+002 -6.623248079354092E+000 -1.684030062963600E+002 
2.300000000000000E+009 -6.645529021097211E+000 -1.673735115946968E+002 -6.645529021097211E+000 -1.673735115946968E+002 -6.645529021097211E+000 -1.673735115946968E+002 -6.645529021097211E+000 -1.673735115946968E+002 
2.305000000000000E+009 -6.685001691939370E+000 -1.665128240113174E+002 -6.685001691939370E+000 -1.665128240113174E+002 -6.685001691939370E+000 -1.665128240113174E+002 -6.685001691939370E+000 -1.665128240113174E+002 
2.310000000000000E+009 -6.772213892026880E+000 -1.659201660846105E+002 -6.772213892026880E+000 -1.659201660846105E+002 -6.772213892026880E+000 -1.659201660846105E+002 -6.772213892026880E+000 -1.659201660846105E+002 
2.315000000000000E+009 -6.934615209210466E+000 -1.655101195279551E+002 -6.934615209210466E+000 -1.655101195279551E+002 -6.934615209210466E+000 -1.655101195279551E+002 -6.934615209210466E+000 -1.655101195279551E+002 
2.320000000000000E+009 -7.159524613770910E+000 -1.650227038623144E+002 -7.159524613770910E+000 -1.650227038623144E+002 -7.159524613770910E+000 -1.650227038623144E+002 -7.159524613770910E+000 -1.650227038623144E+002 
2.325000000000000E+009 -7.394818692951470E+000 -1.646183368651466E+002 -7.394818692951470E+000 -1.646183368651466E+002 -7.394818692951470E+000 -1.646183368651466E+002 -7.394818692951470E+000 -1.646183368651466E+002 
2.330000000000000E+009 -7.646480143958865E+000 -1.645759220469052E+002 -7.646480143958865E+000 -1.645759220469052E+002 -7.646480143958865E+000 -1.645759220469052E+002 -7.646480143958865E+000 -1.645759220469052E+002 
2.335000000000000E+009 -7.942514359273580E+000 -1.649140455701281E+002 -7.942514359273580E+000 -1.649140455701281E+002 -7.942514359273580E+000 -1.649140455701281E+002 -7.942514359273580E+000 -1.649140455701281E+002 
2.340000000000000E+009 -8.264797668348800E+000 -1.657774325538578E+002 -8.264797668348800E+000 -1.657774325538578E+002 -8.264797668348800E+000 -1.657774325538578E+002 -8.264797668348800E+000 -1.657774325538578E+002 
2.345000000000000E+009 -8.634279313799928E+000 -1.671857186717706E+002 -8.634279313799928E+000 -1.671857186717706E+002 -8.634279313799928E+000 -1.671857186717706E+002 -8.634279313799928E+000 -1.671857186717706E+002 
2.350000000000000E+009 -9.073230921521747E+000 -1.691818619862698E+002 -9.073230921521747E+000 -1.691818619862698E+002 -9.073230921521747E+000 -1.691818619862698E+002 -9.073230921521747E+000 -1.691818619862698E+002 
2.355000000000000E+009 -9.545285150029299E+000 -1.713222160518077E+002 -9.545285150029299E+000 -1.713222160518077E+002 -9.545285150029299E+000 -1.713222160518077E+002 -9.545285150029299E+000 -1.713222160518077E+002 
2.360000000000000E+009 -9.967632630398203E+000 -1.738325373845818E+002 -9.967632630398203E+000 -1.738325373845818E+002 -9.967632630398203E+000 -1.738325373845818E+002 -9.967632630398203E+000 -1.738325373845818E+002 
2.365000000000000E+009 -1.033503014224204E+001 -1.769955755546634E+002 -1.033503014224204E+001 -1.769955755546634E+002 -1.033503014224204E+001 -1.769955755546634E+002 -1.033503014224204E+001 -1.769955755546634E+002 
2.370000000000000E+009 -1.063034309869784E+001 1.792975109794138E+002 -1.063034309869784E+001 1.792975109794138E+002 -1.063034309869784E+001 1.792975109794138E+002 -1.063034309869784E+001 1.792975109794138E+002 
2.375000000000000E+009 -1.084337673634499E+001 1.749771239765042E+002 -1.084337673634499E+001 1.749771239765042E+002 -1.084337673634499E+001 1.749771239765042E+002 -1.084337673634499E+001 1.749771239765042E+002 
2.380000000000000E+009 -1.097489325786590E+001 1.701819166147629E+002 -1.097489325786590E+001 1.701819166147629E+002 -1.097489325786590E+001 1.701819166147629E+002 -1.097489325786590E+001 1.701819166147629E+002 
2.385000000000000E+009 -1.107474626054249E+001 1.653535664060841E+002 -1.107474626054249E+001 1.653535664060841E+002 -1.107474626054249E+001 1.653535664060841E+002 -1.107474626054249E+001 1.653535664060841E+002 
2.390000000000000E+009 -1.111544120210038E+001 1.612990150446111E+002 -1.111544120210038E+001 1.612990150446111E+002 -1.111544120210038E+001 1.612990150446111E+002 -1.111544120210038E+001 1.612990150446111E+002 
2.395000000000000E+009 -1.101327059413343E+001 1.580435192988088E+002 -1.101327059413343E+001 1.580435192988088E+002 -1.101327059413343E+001 1.580435192988088E+002 -1.101327059413343E+001 1.580435192988088E+002 
2.400000000000000E+009 -1.079222886131891E+001 1.552397733027377E+002 -1.079222886131891E+001 1.552397733027377E+002 -1.079222886131891E+001 1.552397733027377E+002 -1.079222886131891E+001 1.552397733027377E+002 
