# Version 1.00
#
freq[Hz] db:Trc1_S11 ang:Trc1_S11 db:Trc2_S11 ang:Trc2_S11 db:Trc3_S11 ang:Trc3_S11 db:Trc4_S11 ang:Trc4_S11 
2.000000000000000E+009 -5.381257233556376E+000 9.287142995858018E+000 -5.381257233556376E+000 9.287142995858018E+000 -5.381257233556376E+000 9.287142995858018E+000 -5.381257233556376E+000 9.287142995858018E+000 
2.005000000000000E+009 -5.372114933810471E+000 8.454339058438828E+000 -5.372114933810471E+000 8.454339058438828E+000 -5.372114933810471E+000 8.454339058438828E+000 -5.372114933810471E+000 8.454339058438828E+000 
2.010000000000000E+009 -5.354607493418443E+000 7.686409541176285E+000 -5.354607493418443E+000 7.686409541176285E+000 -5.354607493418443E+000 7.686409541176285E+000 -5.354607493418443E+000 7.686409541176285E+000 
2.015000000000000E+009 -5.328960636954918E+000 6.898322155554942E+000 -5.328960636954918E+000 6.898322155554942E+000 -5.328960636954918E+000 6.898322155554942E+000 -5.328960636954918E+000 6.898322155554942E+000 
2.020000000000000E+009 -5.312428303659704E+000 6.081473716044113E+000 -5.312428303659704E+000 6.081473716044113E+000 -5.312428303659704E+000 6.081473716044113E+000 -5.312428303659704E+000 6.081473716044113E+000 
2.025000000000000E+009 -5.290584247196939E+000 5.497148587778948E+000 -5.290584247196939E+000 5.497148587778948E+000 -5.290584247196939E+000 5.497148587778948E+000 -5.290584247196939E+000 5.497148587778948E+000 
2.030000000000000E+009 -5.263719795904938E+000 4.979950977357928E+000 -5.263719795904938E+000 4.979950977357928E+000 -5.263719795904938E+000 4.979950977357928E+000 -5.263719795904938E+000 4.979950977357928E+000 
2.035000000000000E+009 -5.223634359064414E+000 4.421322820917562E+000 -5.223634359064414E+000 4.421322820917562E+000 -5.223634359064414E+000 4.421322820917562E+000 -5.223634359064414E+000 4.421322820917562E+000 
2.040000000000000E+009 -5.171532180364172E+000 3.823144364898883E+000 -5.171532180364172E+000 3.823144364898883E+000 -5.171532180364172E+000 3.823144364898883E+000 -5.171532180364172E+000 3.823144364898883E+000 
2.045000000000000E+009 -5.106567842831690E+000 3.463577331090635E+000 -5.106567842831690E+000 3.463577331090635E+000 -5.106567842831690E+000 3.463577331090635E+000 -5.106567842831690E+000 3.463577331090635E+000 
2.050000000000000E+009 -5.026945368731097E+000 3.043364725044614E+000 -5.026945368731097E+000 3.043364725044614E+000 -5.026945368731097E+000 3.043364725044614E+000 -5.026945368731097E+000 3.043364725044614E+000 
2.055000000000000E+009 -4.938990511172801E+000 2.589333681569387E+000 -4.938990511172801E+000 2.589333681569387E+000 -4.938990511172801E+000 2.589333681569387E+000 -4.938990511172801E+000 2.589333681569387E+000 
2.060000000000000E+009 -4.836009210186613E+000 1.950227640710047E+000 -4.836009210186613E+000 1.950227640710047E+000 -4.836009210186613E+000 1.950227640710047E+000 -4.836009210186613E+000 1.950227640710047E+000 
2.065000000000000E+009 -4.718942436181584E+000 1.434292155323373E+000 -4.718942436181584E+000 1.434292155323373E+000 -4.718942436181584E+000 1.434292155323373E+000 -4.718942436181584E+000 1.434292155323373E+000 
2.070000000000000E+009 -4.597754398322564E+000 7.288924188702366E-001 -4.597754398322564E+000 7.288924188702366E-001 -4.597754398322564E+000 7.288924188702366E-001 -4.597754398322564E+000 7.288924188702366E-001 
2.075000000000000E+009 -4.470872947274005E+000 -1.727564153469203E-001 -4.470872947274005E+000 -1.727564153469203E-001 -4.470872947274005E+000 -1.727564153469203E-001 -4.470872947274005E+000 -1.727564153469203E-001 
2.080000000000000E+009 -4.347089035384295E+000 -1.307474450905768E+000 -4.347089035384295E+000 -1.307474450905768E+000 -4.347089035384295E+000 -1.307474450905768E+000 -4.347089035384295E+000 -1.307474450905768E+000 
2.085000000000000E+009 -4.232250867067302E+000 -2.261955850473516E+000 -4.232250867067302E+000 -2.261955850473516E+000 -4.232250867067302E+000 -2.261955850473516E+000 -4.232250867067302E+000 -2.261955850473516E+000 
2.090000000000000E+009 -4.127139587405465E+000 -3.444460243819904E+000 -4.127139587405465E+000 -3.444460243819904E+000 -4.127139587405465E+000 -3.444460243819904E+000 -4.127139587405465E+000 -3.444460243819904E+000 
2.095000000000000E+009 -4.034756567236003E+000 -4.765237767237144E+000 -4.034756567236003E+000 -4.765237767237144E+000 -4.034756567236003E+000 -4.765237767237144E+000 -4.034756567236003E+000 -4.765237767237144E+000 
2.100000000000000E+009 -3.955604364303427E+000 -6.232173526196353E+000 -3.955604364303427E+000 -6.232173526196353E+000 -3.955604364303427E+000 -6.232173526196353E+000 -3.955604364303427E+000 -6.232173526196353E+000 
2.105000000000000E+009 -3.891189594071431E+000 -7.398771478337395E+000 -3.891189594071431E+000 -7.398771478337395E+000 -3.891189594071431E+000 -7.398771478337395E+000 -3.891189594071431E+000 -7.398771478337395E+000 
2.110000000000000E+009 -3.834555334347865E+000 -8.741905941971533E+000 -3.834555334347865E+000 -8.741905941971533E+000 -3.834555334347865E+000 -8.741905941971533E+000 -3.834555334347865E+000 -8.741905941971533E+000 
2.115000000000000E+009 -3.784483977360205E+000 -1.024229807060041E+001 -3.784483977360205E+000 -1.024229807060041E+001 -3.784483977360205E+000 -1.024229807060041E+001 -3.784483977360205E+000 -1.024229807060041E+001 
2.120000000000000E+009 -3.748660426381191E+000 -1.181889319074871E+001 -3.748660426381191E+000 -1.181889319074871E+001 -3.748660426381191E+000 -1.181889319074871E+001 -3.748660426381191E+000 -1.181889319074871E+001 
2.125000000000000E+009 -3.740398361854015E+000 -1.307055389950072E+001 -3.740398361854015E+000 -1.307055389950072E+001 -3.740398361854015E+000 -1.307055389950072E+001 -3.740398361854015E+000 -1.307055389950072E+001 
2.130000000000000E+009 -3.747100080664457E+000 -1.450303708283338E+001 -3.747100080664457E+000 -1.450303708283338E+001 -3.747100080664457E+000 -1.450303708283338E+001 -3.747100080664457E+000 -1.450303708283338E+001 
2.135000000000000E+009 -3.742841963884136E+000 -1.601040099696080E+001 -3.742841963884136E+000 -1.601040099696080E+001 -3.742841963884136E+000 -1.601040099696080E+001 -3.742841963884136E+000 -1.601040099696080E+001 
2.140000000000000E+009 -3.729794311340716E+000 -1.758559970937257E+001 -3.729794311340716E+000 -1.758559970937257E+001 -3.729794311340716E+000 -1.758559970937257E+001 -3.729794311340716E+000 -1.758559970937257E+001 
2.145000000000000E+009 -3.750075330281901E+000 -1.881382789715605E+001 -3.750075330281901E+000 -1.881382789715605E+001 -3.750075330281901E+000 -1.881382789715605E+001 -3.750075330281901E+000 -1.881382789715605E+001 
2.150000000000000E+009 -3.778868108027940E+000 -2.018539406920853E+001 -3.778868108027940E+000 -2.018539406920853E+001 -3.778868108027940E+000 -2.018539406920853E+001 -3.778868108027940E+000 -2.018539406920853E+001 
2.155000000000000E+009 -3.813270638130348E+000 -2.171195713708758E+001 -3.813270638130348E+000 -2.171195713708758E+001 -3.813270638130348E+000 -2.171195713708758E+001 -3.813270638130348E+000 -2.171195713708758E+001 
2.160000000000000E+009 -3.842745034807323E+000 -2.330863429406491E+001 -3.842745034807323E+000 -2.330863429406491E+001 -3.842745034807323E+000 -2.330863429406491E+001 -3.842745034807323E+000 -2.330863429406491E+001 
2.165000000000000E+009 -3.896906405993012E+000 -2.462228196151574E+001 -3.896906405993012E+000 -2.462228196151574E+001 -3.896906405993012E+000 -2.462228196151574E+001 -3.896906405993012E+000 -2.462228196151574E+001 
2.170000000000000E+009 -3.960441769544909E+000 -2.606796529291767E+001 -3.960441769544909E+000 -2.606796529291767E+001 -3.960441769544909E+000 -2.606796529291767E+001 -3.960441769544909E+000 -2.606796529291767E+001 
2.175000000000000E+009 -4.025752825670385E+000 -2.755313219526463E+001 -4.025752825670385E+000 -2.755313219526463E+001 -4.025752825670385E+000 -2.755313219526463E+001 -4.025752825670385E+000 -2.755313219526463E+001 
2.180000000000000E+009 -4.084866943231354E+000 -2.898782263986443E+001 -4.084866943231354E+000 -2.898782263986443E+001 -4.084866943231354E+000 -2.898782263986443E+001 -4.084866943231354E+000 -2.898782263986443E+001 
2.185000000000000E+009 -4.163136765690591E+000 -3.032952041149730E+001 -4.163136765690591E+000 -3.032952041149730E+001 -4.163136765690591E+000 -3.032952041149730E+001 -4.163136765690591E+000 -3.032952041149730E+001 
2.190000000000000E+009 -4.248526844817038E+000 -3.168843883482986E+001 -4.248526844817038E+000 -3.168843883482986E+001 -4.248526844817038E+000 -3.168843883482986E+001 -4.248526844817038E+000 -3.168843883482986E+001 
2.195000000000000E+009 -4.332311980322565E+000 -3.306594067549428E+001 -4.332311980322565E+000 -3.306594067549428E+001 -4.332311980322565E+000 -3.306594067549428E+001 -4.332311980322565E+000 -3.306594067549428E+001 
2.200000000000000E+009 -4.408423187435253E+000 -3.440462486326730E+001 -4.408423187435253E+000 -3.440462486326730E+001 -4.408423187435253E+000 -3.440462486326730E+001 -4.408423187435253E+000 -3.440462486326730E+001 
2.205000000000000E+009 -4.503370956154691E+000 -3.573260843236375E+001 -4.503370956154691E+000 -3.573260843236375E+001 -4.503370956154691E+000 -3.573260843236375E+001 -4.503370956154691E+000 -3.573260843236375E+001 
2.210000000000000E+009 -4.595217577821581E+000 -3.707553205640490E+001 -4.595217577821581E+000 -3.707553205640490E+001 -4.595217577821581E+000 -3.707553205640490E+001 -4.595217577821581E+000 -3.707553205640490E+001 
2.215000000000000E+009 -4.676750781328898E+000 -3.846693303007634E+001 -4.676750781328898E+000 -3.846693303007634E+001 -4.676750781328898E+000 -3.846693303007634E+001 -4.676750781328898E+000 -3.846693303007634E+001 
2.220000000000000E+009 -4.756472752641618E+000 -3.988880359609257E+001 -4.756472752641618E+000 -3.988880359609257E+001 -4.756472752641618E+000 -3.988880359609257E+001 -4.756472752641618E+000 -3.988880359609257E+001 
2.225000000000000E+009 -4.850761836942917E+000 -4.138029709146428E+001 -4.850761836942917E+000 -4.138029709146428E+001 -4.850761836942917E+000 -4.138029709146428E+001 -4.850761836942917E+000 -4.138029709146428E+001 
2.230000000000000E+009 -4.950840395112775E+000 -4.300423516275436E+001 -4.950840395112775E+000 -4.300423516275436E+001 -4.950840395112775E+000 -4.300423516275436E+001 -4.950840395112775E+000 -4.300423516275436E+001 
2.235000000000000E+009 -5.060295622854458E+000 -4.468805114516490E+001 -5.060295622854458E+000 -4.468805114516490E+001 -5.060295622854458E+000 -4.468805114516490E+001 -5.060295622854458E+000 -4.468805114516490E+001 
2.240000000000000E+009 -5.182307732923811E+000 -4.633687661874003E+001 -5.182307732923811E+000 -4.633687661874003E+001 -5.182307732923811E+000 -4.633687661874003E+001 -5.182307732923811E+000 -4.633687661874003E+001 
2.245000000000000E+009 -5.340445033162640E+000 -4.806787127118979E+001 -5.340445033162640E+000 -4.806787127118979E+001 -5.340445033162640E+000 -4.806787127118979E+001 -5.340445033162640E+000 -4.806787127118979E+001 
2.250000000000000E+009 -5.503093218863088E+000 -4.979460128437967E+001 -5.503093218863088E+000 -4.979460128437967E+001 -5.503093218863088E+000 -4.979460128437967E+001 -5.503093218863088E+000 -4.979460128437967E+001 
2.255000000000000E+009 -5.675033479780315E+000 -5.144635224784734E+001 -5.675033479780315E+000 -5.144635224784734E+001 -5.675033479780315E+000 -5.144635224784734E+001 -5.675033479780315E+000 -5.144635224784734E+001 
2.260000000000000E+009 -5.845609537845325E+000 -5.298545492588038E+001 -5.845609537845325E+000 -5.298545492588038E+001 -5.845609537845325E+000 -5.298545492588038E+001 -5.845609537845325E+000 -5.298545492588038E+001 
2.265000000000000E+009 -6.037261117063898E+000 -5.470389012129428E+001 -6.037261117063898E+000 -5.470389012129428E+001 -6.037261117063898E+000 -5.470389012129428E+001 -6.037261117063898E+000 -5.470389012129428E+001 
2.270000000000000E+009 -6.232564810976315E+000 -5.636700809621807E+001 -6.232564810976315E+000 -5.636700809621807E+001 -6.232564810976315E+000 -5.636700809621807E+001 -6.232564810976315E+000 -5.636700809621807E+001 
2.275000000000000E+009 -6.429096172646063E+000 -5.795082541106393E+001 -6.429096172646063E+000 -5.795082541106393E+001 -6.429096172646063E+000 -5.795082541106393E+001 -6.429096172646063E+000 -5.795082541106393E+001 
2.280000000000000E+009 -6.628808691448549E+000 -5.946309901039271E+001 -6.628808691448549E+000 -5.946309901039271E+001 -6.628808691448549E+000 -5.946309901039271E+001 -6.628808691448549E+000 -5.946309901039271E+001 
2.285000000000000E+009 -6.830006867844499E+000 -6.122326460590722E+001 -6.830006867844499E+000 -6.122326460590722E+001 -6.830006867844499E+000 -6.122326460590722E+001 -6.830006867844499E+000 -6.122326460590722E+001 
2.290000000000000E+009 -7.018981290022238E+000 -6.302404822842332E+001 -7.018981290022238E+000 -6.302404822842332E+001 -7.018981290022238E+000 -6.302404822842332E+001 -7.018981290022238E+000 -6.302404822842332E+001 
2.295000000000000E+009 -7.199175129618031E+000 -6.482277009154882E+001 -7.199175129618031E+000 -6.482277009154882E+001 -7.199175129618031E+000 -6.482277009154882E+001 -7.199175129618031E+000 -6.482277009154882E+001 
2.300000000000000E+009 -7.391341488297851E+000 -6.657656808801666E+001 -7.391341488297851E+000 -6.657656808801666E+001 -7.391341488297851E+000 -6.657656808801666E+001 -7.391341488297851E+000 -6.657656808801666E+001 
2.305000000000000E+009 -7.610539107085680E+000 -6.881219076476089E+001 -7.610539107085680E+000 -6.881219076476089E+001 -7.610539107085680E+000 -6.881219076476089E+001 -7.610539107085680E+000 -6.881219076476089E+001 
2.310000000000000E+009 -7.814095361114811E+000 -7.112436530579524E+001 -7.814095361114811E+000 -7.112436530579524E+001 -7.814095361114811E+000 -7.112436530579524E+001 -7.814095361114811E+000 -7.112436530579524E+001 
2.315000000000000E+009 -8.018296959953251E+000 -7.345223167874902E+001 -8.018296959953251E+000 -7.345223167874902E+001 -8.018296959953251E+000 -7.345223167874902E+001 -8.018296959953251E+000 -7.345223167874902E+001 
2.320000000000000E+009 -8.229337976477282E+000 -7.571858972953373E+001 -8.229337976477282E+000 -7.571858972953373E+001 -8.229337976477282E+000 -7.571858972953373E+001 -8.229337976477282E+000 -7.571858972953373E+001 
2.325000000000000E+009 -8.455355692258522E+000 -7.876598138228692E+001 -8.455355692258522E+000 -7.876598138228692E+001 -8.455355692258522E+000 -7.876598138228692E+001 -8.455355692258522E+000 -7.876598138228692E+001 
2.330000000000000E+009 -8.688992086099066E+000 -8.184202668611621E+001 -8.688992086099066E+000 -8.184202668611621E+001 -8.688992086099066E+000 -8.184202668611621E+001 -8.688992086099066E+000 -8.184202668611621E+001 
2.335000000000000E+009 -8.933101701995518E+000 -8.490048860880380E+001 -8.933101701995518E+000 -8.490048860880380E+001 -8.933101701995518E+000 -8.490048860880380E+001 -8.933101701995518E+000 -8.490048860880380E+001 
2.340000000000000E+009 -9.205534333323508E+000 -8.797924450493589E+001 -9.205534333323508E+000 -8.797924450493589E+001 -9.205534333323508E+000 -8.797924450493589E+001 -9.205534333323508E+000 -8.797924450493589E+001 
2.345000000000000E+009 -9.484178874632667E+000 -9.192707984490120E+001 -9.484178874632667E+000 -9.192707984490120E+001 -9.484178874632667E+000 -9.192707984490120E+001 -9.484178874632667E+000 -9.192707984490120E+001 
2.350000000000000E+009 -9.772824023945608E+000 -9.591294523432160E+001 -9.772824023945608E+000 -9.591294523432160E+001 -9.772824023945608E+000 -9.591294523432160E+001 -9.772824023945608E+000 -9.591294523432160E+001 
2.355000000000000E+009 -1.008943879950508E+001 -9.990883808203886E+001 -1.008943879950508E+001 -9.990883808203886E+001 -1.008943879950508E+001 -9.990883808203886E+001 -1.008943879950508E+001 -9.990883808203886E+001 
2.360000000000000E+009 -1.044567723090503E+001 -1.038952870226461E+002 -1.044567723090503E+001 -1.038952870226461E+002 -1.044567723090503E+001 -1.038952870226461E+002 -1.044567723090503E+001 -1.038952870226461E+002 
2.365000000000000E+009 -1.077684092417683E+001 -1.086829164852768E+002 -1.077684092417683E+001 -1.086829164852768E+002 -1.077684092417683E+001 -1.086829164852768E+002 -1.077684092417683E+001 -1.086829164852768E+002 
2.370000000000000E+009 -1.111374903616495E+001 -1.135197700830193E+002 -1.111374903616495E+001 -1.135197700830193E+002 -1.111374903616495E+001 -1.135197700830193E+002 -1.111374903616495E+001 -1.135197700830193E+002 
2.375000000000000E+009 -1.148296349819731E+001 -1.184294427883927E+002 -1.148296349819731E+001 -1.184294427883927E+002 -1.148296349819731E+001 -1.184294427883927E+002 -1.148296349819731E+001 -1.184294427883927E+002 
2.380000000000000E+009 -1.188256952825998E+001 -1.235104020037162E+002 -1.188256952825998E+001 -1.235104020037162E+002 -1.188256952825998E+001 -1.235104020037162E+002 -1.188256952825998E+001 -1.235104020037162E+002 
2.385000000000000E+009 -1.222181100581314E+001 -1.291105545379562E+002 -1.222181100581314E+001 -1.291105545379562E+002 -1.222181100581314E+001 -1.291105545379562E+002 -1.222181100581314E+001 -1.291105545379562E+002 
2.390000000000000E+009 -1.254780409756164E+001 -1.347838723384063E+002 -1.254780409756164E+001 -1.347838723384063E+002 -1.254780409756164E+001 -1.347838723384063E+002 -1.254780409756164E+001 -1.347838723384063E+002 
2.395000000000000E+009 -1.285856541264566E+001 -1.405880536724579E+002 -1.285856541264566E+001 -1.405880536724579E+002 -1.285856541264566E+001 -1.405880536724579E+002 -1.285856541264566E+001 -1.405880536724579E+002 
2.400000000000000E+009 -1.315793528159138E+001 -1.467352272804715E+002 -1.315793528159138E+001 -1.467352272804715E+002 -1.315793528159138E+001 -1.467352272804715E+002 -1.315793528159138E+001 -1.467352272804715E+002 
2.405000000000000E+009 -1.335561943641718E+001 -1.531518816589125E+002 -1.335561943641718E+001 -1.531518816589125E+002 -1.335561943641718E+001 -1.531518816589125E+002 -1.335561943641718E+001 -1.531518816589125E+002 
2.410000000000000E+009 -1.352955843312024E+001 -1.596187293514315E+002 -1.352955843312024E+001 -1.596187293514315E+002 -1.352955843312024E+001 -1.596187293514315E+002 -1.352955843312024E+001 -1.596187293514315E+002 
2.415000000000000E+009 -1.368931553284857E+001 -1.660712821708297E+002 -1.368931553284857E+001 -1.660712821708297E+002 -1.368931553284857E+001 -1.660712821708297E+002 -1.368931553284857E+001 -1.660712821708297E+002 
2.420000000000000E+009 -1.381412374646414E+001 -1.725498915449038E+002 -1.381412374646414E+001 -1.725498915449038E+002 -1.381412374646414E+001 -1.725498915449038E+002 -1.381412374646414E+001 -1.725498915449038E+002 
2.425000000000000E+009 -1.382035349144743E+001 -1.785697165376793E+002 -1.382035349144743E+001 -1.785697165376793E+002 -1.382035349144743E+001 -1.785697165376793E+002 -1.382035349144743E+001 -1.785697165376793E+002 
2.430000000000000E+009 -1.377161734260447E+001 1.755870055610976E+002 -1.377161734260447E+001 1.755870055610976E+002 -1.377161734260447E+001 1.755870055610976E+002 -1.377161734260447E+001 1.755870055610976E+002 
2.435000000000000E+009 -1.368849316806793E+001 1.698178215230253E+002 -1.368849316806793E+001 1.698178215230253E+002 -1.368849316806793E+001 1.698178215230253E+002 -1.368849316806793E+001 1.698178215230253E+002 
2.440000000000000E+009 -1.355217282187166E+001 1.641652800084081E+002 -1.355217282187166E+001 1.641652800084081E+002 -1.355217282187166E+001 1.641652800084081E+002 -1.355217282187166E+001 1.641652800084081E+002 
2.445000000000000E+009 -1.332426984643083E+001 1.592242428512111E+002 -1.332426984643083E+001 1.592242428512111E+002 -1.332426984643083E+001 1.592242428512111E+002 -1.332426984643083E+001 1.592242428512111E+002 
2.450000000000000E+009 -1.309134286610408E+001 1.543560813525578E+002 -1.309134286610408E+001 1.543560813525578E+002 -1.309134286610408E+001 1.543560813525578E+002 -1.309134286610408E+001 1.543560813525578E+002 
